time,pos_x,pos_y,pressure
373.8901,1.588759,-69.84066,0.3167155
373.9001,1.588759,-69.84066,0.3186706
373.9101,1.588759,-69.84066,0.3196481
373.9201,1.588759,-69.84066,0.3206256
373.9301,1.588759,-69.84066,0.3225806
373.9401,1.588759,-69.84066,0.3225806
373.9501,1.588759,-69.84066,0.3225806
373.9601,1.588759,-69.84066,0.3225806
373.9701,1.588759,-69.84066,0.3225806
373.9801,1.588759,-69.84066,0.3225806
373.9901,1.588759,-69.84066,0.3225806
374.0001,1.588759,-69.84066,0.3225806
374.0101,1.588759,-69.80528,0.3225806
374.0201,1.588759,-69.80528,0.3225806
374.0301,1.588759,-69.80528,0.3235582
374.0401,1.588759,-69.80528,0.3225806
374.0501,1.588759,-69.80528,0.3235582
374.0601,1.588759,-69.80528,0.3235582
374.0701,1.588759,-69.80528,0.3235582
374.0801,1.588759,-69.80528,0.3235582
374.0901,1.56078,-69.80528,0.3235582
374.1001,1.56078,-69.80528,0.3235582
374.1101,1.56078,-69.80528,0.3245357
374.1201,1.56078,-69.80528,0.3245357
374.1301,1.527202,-69.80528,0.3245357
374.1401,1.488027,-69.7876,0.3245357
374.1501,1.420868,-69.69916,0.3235582
374.1601,1.303343,-69.57536,0.3235582
374.1701,1.14105,-69.43385,0.3245357
374.1801,0.9115921,-69.22161,0.3245357
374.1901,0.6037894,-68.92094,0.3245357
374.2001,0.1840593,-68.46107,0.3255132
374.2101,-0.3308095,-67.71822,0.3264907
374.2201,-1.343763,-65.8611,0.3284458
374.2301,-2.194419,-64.00397,0.3294233
374.2401,-3.34728,-61.72236,0.3313783
374.2501,-4.679227,-58.91014,0.3323558
374.2601,-6.111911,-55.60269,0.3333333
374.2701,-7.544595,-51.87075,0.3343109
374.2801,-8.837368,-47.89119,0.3352884
374.2901,-9.452978,-45.76876,0.3362659
374.3001,-11.05915,-39.20692,0.3372434
374.3101,-11.96017,-34.55526,0.3382209
374.3201,-12.76606,-29.81516,0.3382209
374.3301,-13.45442,-24.91589,0.3391984
374.3401,-13.89094,-19.99892,0.340176
374.3501,-14.07002,-15.04659,0.340176
374.3601,-14.07002,-12.57043,0.3411535
374.3701,-13.98048,-7.635772,0.3411535
374.3801,-13.75103,-2.701117,0.3411535
374.3901,-13.39286,2.321964,0.3411535
374.4001,-12.88918,7.415798,0.340176
374.4101,-11.96017,15.09191,0.3411535
374.4201,-11.2886,19.9735,0.342131
374.4301,-10.60024,24.5721,0.342131
374.4401,-9.833533,28.85234,0.342131
374.4501,-9.02765,32.77883,0.342131
374.4601,-8.238551,36.40464,0.342131
374.4701,-7.57258,39.65904,0.342131
374.4801,-7.046515,42.59507,0.342131
374.4901,-6.626785,45.30116,0.342131
374.5001,-6.263019,47.83039,0.342131
374.5101,-5.893654,50.21813,0.342131
374.5201,-5.496306,52.4113,0.342131
374.5301,-5.037401,54.33918,0.3411535
374.5404,-4.522532,56.05481,0.3411535
374.551,-4.024447,57.50513,0.3411535
374.5601,-3.58233,58.70784,0.3411535
374.5701,-3.257739,59.69832,0.3411535
374.5801,-2.977916,60.56497,0.3411535
374.5901,-2.759659,61.39626,0.3411535
374.6001,-2.608556,62.22754,0.342131
374.6101,-2.468645,63.04114,0.342131
374.6201,-2.323135,63.83705,0.3411535
374.6301,-2.149646,64.54453,0.342131
374.6401,-1.970564,65.19895,0.3411535
374.6501,-1.841844,65.74724,0.340176
374.6601,-1.746705,66.15404,0.340176
374.6701,-1.713128,66.43703,0.3411535
374.6801,-1.713128,66.64928,0.340176
374.6901,-1.713128,66.80846,0.3411535
374.7001,-1.746705,66.98532,0.3411535
374.7101,-1.746705,67.19757,0.3411535
374.7201,-1.673953,67.48056,0.3411535
374.7301,-1.556427,67.86967,0.3411535
374.7401,-1.388536,68.29415,0.3411535
374.7501,-1.175872,68.73634,0.3411535
374.7601,-0.979997,69.12545,0.3411535
374.7701,-0.8065081,69.40843,0.340176
374.7801,-0.7169624,69.60298,0.340176
374.7901,-0.6777873,69.69142,0.340176
374.8001,-0.6777873,69.72679,0.3411535
374.8101,-0.6777873,69.76218,0.3411535
374.8201,-0.6777873,69.76218,0.342131
374.8301,-0.6777873,69.76218,0.342131
374.8401,-0.6777873,69.76218,0.3411535
374.8501,-0.6777873,69.76218,0.3411535
374.8601,-0.6777873,69.76218,0.3391984
374.8701,-0.6777873,69.76218,0.3382209
374.8801,-0.6777873,69.76218,0.3382209
374.8901,-0.6498079,69.72679,0.3372434
374.9001,-0.6498079,69.69142,0.3372434
374.9101,-0.6498079,69.67374,0.3382209
374.9201,-0.6498079,69.67374,0.3372434
374.9302,-0.6498079,69.63837,0.3372434
374.9401,-0.6498079,69.63837,0.3382209
374.9502,-0.6498079,69.63837,0.3382209
374.9601,-0.6106328,69.63837,0.3372434
374.9701,-0.5826486,69.63837,0.3372434
374.9801,-0.5826486,69.60298,0.3372434
374.9901,-0.5098962,69.60298,0.3372434
375.0001,-0.5098962,69.60298,0.3382209
375.0101,-0.4819168,69.56761,0.3382209
375.0201,-0.4483347,69.56761,0.3372434
375.0301,-0.4483347,69.56761,0.3391984
375.0401,-0.4483347,69.56761,0.3391984
375.0501,-0.4483347,69.56761,0.3391984
375.0601,-0.4483347,69.54993,0.3391984
375.0701,-0.4483347,69.54993,0.3391984
375.0801,-0.4483347,69.54993,0.3391984
375.0901,-0.4483347,69.54993,0.3382209
375.1001,-0.4483347,69.54993,0.3382209
375.1101,-0.4483347,69.51456,0.3372434
375.1201,-0.4483347,69.51456,0.3382209
375.1301,-0.4483347,69.51456,0.3391984
375.1401,-0.4819168,69.47917,0.3391984
375.1501,-0.4819168,69.4438,0.340176
375.1601,-0.5098962,69.40843,0.340176
375.1701,-0.5378805,69.37306,0.340176
375.1801,-0.5714577,69.37306,0.3411535
375.1901,-0.5994372,69.32,0.3411535
375.2001,-0.5994372,69.30231,0.340176
375.2101,-0.6274214,69.19619,0.3391984
375.2202,-0.688983,69.03701,0.340176
375.2302,-0.7785239,68.77171,0.3391984
375.2401,-0.9072447,68.38259,0.3391984
375.2501,-1.058347,67.81661,0.3382209
375.2601,-1.226238,67.02071,0.3382209
375.2701,-1.478077,65.95949,0.3391984
375.2801,-1.774689,64.56222,0.3372434
375.2901,-2.211208,62.75815,0.3343109
375.3001,-2.860395,60.44117,0.3313783
375.3101,-3.845365,57.36364,0.3274682
375.3201,-5.02621,53.57864,0.3255132
375.3301,-6.313385,48.96236,0.3255132
375.3401,-7.645332,43.81547,0.3245357
375.3501,-8.966088,38.42096,0.3245357
375.3601,-10.30363,33.09719,0.3245357
375.3701,-11.7643,28.05643,0.3245357
375.3801,-13.11863,23.38707,0.3245357
375.3901,-14.4226,18.87691,0.3255132
375.4001,-15.61464,14.47287,0.3255132
375.4101,-16.72832,9.998078,0.3264907
375.4201,-17.82522,5.470235,0.3264907
375.4301,-18.81579,0.871637,0.3264907
375.4401,-19.68324,-3.726961,0.3264907
375.4501,-20.47793,-8.360942,0.3264907
375.4601,-21.28381,-12.94184,0.3264907
375.4701,-22.05052,-17.41664,0.3264907
375.4801,-22.67732,-21.74993,0.3274682
375.4901,-23.16421,-25.83561,0.3274682
375.5001,-23.56155,-29.67367,0.3274682
375.5101,-23.90293,-33.29949,0.3274682
375.5201,-24.23312,-36.66,0.3274682
375.5301,-24.52973,-39.93208,0.3274682
375.5401,-24.93827,-44.51299,0.3284458
375.5501,-25.0446,-46.03407,0.3284458
375.5601,-25.33562,-50.27893,0.3284458
375.5701,-25.5259,-52.91428,0.3284458
375.5801,-25.75535,-55.39044,0.3294233
375.5901,-25.88407,-56.57547,0.3294233
375.6001,-26.30939,-59.82986,0.3294233
375.6101,-26.62839,-61.82848,0.3294233
375.6201,-26.88582,-63.59718,0.3304008
375.6301,-27.12647,-65.34818,0.3304008
375.6401,-27.32794,-66.97537,0.3313783
375.6501,-27.48464,-68.53182,0.3313783
375.6601,-27.5518,-69.29236,0.3323558
375.6701,-27.73089,-71.23792,0.3333333
375.6801,-27.82043,-72.33451,0.3352884
375.6901,-27.89318,-73.23654,0.3352884
375.7001,-27.92117,-74.03246,0.3372434
375.7101,-27.99952,-74.77531,0.3391984
375.7201,-28.06107,-75.35897,0.3391984
