time,pos_x,pos_y,pressure
553.0201,-0.3028301,-69.84066,0.4320626
553.0301,-0.3028301,-69.84066,0.4320626
553.0402,-0.3028301,-69.84066,0.4320626
553.0501,-0.3028301,-69.84066,0.4320626
553.0602,-0.3028301,-69.84066,0.4330401
553.0701,-0.3028301,-69.80528,0.4330401
553.0801,-0.263655,-69.80528,0.4330401
553.0903,-0.263655,-69.80528,0.4320626
553.1002,-0.2300778,-69.80528,0.4310851
553.1102,-0.2300778,-69.76991,0.4320626
553.1201,-0.2300778,-69.76991,0.4310851
553.1302,-0.1909027,-69.73454,0.4310851
553.1401,-0.1909027,-69.73454,0.4320626
553.1501,-0.1909027,-69.73454,0.4320626
553.1601,-0.1909027,-69.73454,0.4310851
553.1701,-0.1909027,-69.73454,0.4310851
553.1801,-0.1629184,-69.71685,0.4320626
553.1901,-0.1629184,-69.71685,0.4320626
553.2001,-0.1349342,-69.71685,0.4320626
553.2101,-0.1349342,-69.68147,0.4330401
553.2201,-0.1349342,-69.68147,0.4340176
553.2301,-0.1349342,-69.68147,0.4330401
553.2401,-0.1349342,-69.68147,0.4330401
553.2501,-0.09016613,-69.68147,0.4320626
553.2601,0.004972627,-69.6461,0.4310851
553.2701,0.2344252,-69.6461,0.42913
553.2801,0.6429645,-69.59304,0.4281525
553.2901,1.2194,-69.52229,0.42913
553.3001,1.946932,-69.39848,0.42913
553.3101,3.390807,-69.0978,0.4301075
553.3201,3.956047,-68.99168,0.4281525
553.3301,5.209644,-68.70869,0.4281525
553.3401,7.409036,-68.12502,0.4281525
553.3501,9.020812,-67.54136,0.4281525
553.3601,10.87323,-66.71007,0.4301075
553.3701,12.77041,-65.7196,0.4310851
553.3801,14.86347,-64.42846,0.4310851
553.3901,16.99011,-62.8897,0.4310851
553.4001,19.21189,-61.01488,0.4310851
553.4101,21.36092,-58.80402,0.4310851
553.4201,23.54912,-56.32785,0.4320626
553.4301,25.55823,-53.60406,0.4330401
553.4401,27.46661,-50.73879,0.4330401
553.4501,29.06158,-47.66126,0.4349951
553.4601,29.71637,-46.01638,0.4349951
553.4701,31.28897,-40.97561,0.4349951
553.4802,31.95494,-37.38516,0.4349951
553.4901,32.38586,-33.6886,0.4349951
553.5001,32.55375,-29.9036,0.4359726
553.5101,32.50338,-26.04785,0.4369501
553.5201,32.41385,-24.15535,0.4369501
553.5302,31.99412,-18.38942,0.4428152
553.5401,31.63594,-14.79897,0.4516129
553.5502,31.24979,-11.22621,0.459433
553.5602,30.77409,-7.812636,0.4662757
553.5701,30.17528,-4.328321,0.4711632
553.5801,29.38058,-0.6671284,0.4721408
553.5904,28.48516,3.259368,0.4731183
553.6002,27.6401,7.327359,0.4740958
553.6101,26.94054,11.28923,0.4750733
553.6201,26.35292,14.91505,0.4760508
553.6301,25.73731,18.11637,0.4770283
553.6401,25.02098,21.0701,0.4780059
553.6501,24.1871,23.88231,0.4789834
553.6601,23.28049,26.88909,0.4809384
553.6701,22.24515,30.21422,0.4809384
553.6801,21.04192,33.78699,0.4819159
553.6901,19.8163,37.60736,0.4828934
553.7001,18.65225,41.26854,0.4828934
553.7101,17.60572,44.59369,0.4819159
553.7201,16.56479,47.49435,0.4819159
553.7301,15.47908,49.97052,0.4828934
553.7401,14.38218,52.25212,0.4819159
553.7501,13.19014,54.39223,0.483871
553.7601,11.95893,56.58541,0.4848485
553.7701,10.69413,58.79628,0.4848485
553.7802,8.830529,62.1391,0.485826
553.7901,7.728034,64.10236,0.4848485
553.8001,6.692694,65.74724,0.483871
553.8101,6.256176,66.38397,0.483871
553.8201,5.041753,67.72817,0.4848485
553.8301,4.207886,68.34722,0.485826
553.8401,3.810542,68.59484,0.485826
553.8501,2.70245,69.26694,0.4868035
553.8601,2.126019,69.70911,0.487781
553.8701,1.879773,69.95673,0.487781
553.8801,1.252977,70.71727,0.4868035
553.8901,0.9115921,71.14175,0.4868035
553.9001,0.6037894,71.46011,0.4848485
553.9101,0.3351618,71.65467,0.4848485
553.9201,0.2288322,71.70773,0.4848485
553.9301,-0.04539325,71.83154,0.485826
553.9401,-0.1517276,71.84922,0.485826
553.9501,-0.22448,71.88461,0.485826
553.9601,-0.2804436,71.91998,0.4848485
553.9702,-0.3140209,71.91998,0.4848485
553.9801,-0.3140209,71.91998,0.483871
553.9901,-0.3140209,71.91998,0.4828934
554.0001,-0.3140209,71.91998,0.483871
554.0101,-0.3140209,71.91998,0.483871
554.0201,-0.3140209,71.91998,0.483871
554.0301,-0.3140209,71.91998,0.483871
554.0401,-0.3140209,71.91998,0.4848485
554.0501,-0.3140209,71.91998,0.4848485
554.0601,-0.3140209,71.91998,0.4848485
554.0701,-0.3140209,71.91998,0.4848485
554.0801,-0.3140209,71.91998,0.483871
554.0901,-0.353196,71.91998,0.483871
554.1001,-0.353196,71.91998,0.483871
554.1101,-0.3811802,71.91998,0.483871
554.1201,-0.3811802,71.91998,0.483871
554.1301,-0.4091597,71.91998,0.483871
554.1401,-0.4427417,71.91998,0.4828934
554.1501,-0.4427417,71.88461,0.483871
554.1602,-0.4427417,71.88461,0.483871
554.1701,-0.4427417,71.88461,0.4828934
554.1801,-0.4427417,71.88461,0.4819159
554.1902,-0.4427417,71.84922,0.4819159
554.2001,-0.4427417,71.84922,0.4809384
554.2104,-0.4427417,71.83154,0.4819159
554.2201,-0.4427417,71.79617,0.4828934
554.2302,-0.4427417,71.79617,0.4828934
554.2401,-0.4427417,71.7608,0.4828934
554.2504,-0.4427417,71.72541,0.483871
554.2601,-0.4427417,71.69004,0.4819159
554.2701,-0.4707212,71.65467,0.4819159
554.2802,-0.4707212,71.60162,0.4828934
554.2901,-0.4427417,71.58392,0.4819159
554.3001,-0.4427417,71.53086,0.483871
554.3101,-0.4091597,71.51318,0.483871
554.3201,-0.3699846,71.46011,0.4819159
554.3301,-0.3308095,71.44242,0.4819159
554.3402,-0.2916345,71.38937,0.4819159
554.3501,-0.2524594,71.354,0.4819159
554.3601,-0.2020935,71.28324,0.4819159
554.3701,-0.140532,71.19481,0.4809384
554.3801,-0.0733775,71.08869,0.4799609
554.3901,0.004972627,70.96488,0.4809384
554.4001,0.08892057,70.82339,0.4819159
554.4101,0.1560751,70.64651,0.4819159
554.4202,0.2680073,70.46965,0.4809384
554.4301,0.3743368,70.32816,0.4789834
554.4401,0.4862642,70.16898,0.4770283
554.4501,0.5925986,70.02748,0.4770283
554.4601,0.7213146,69.8506,0.4780059
554.4814,1.180225,69.21387,0.4760508
554.4901,1.292152,69.0547,0.4760508
554.5001,1.588759,68.68327,0.4740958
554.5101,2.008494,68.18804,0.4740958
554.5201,2.612904,67.44519,0.4740958
554.5301,3.469157,66.26016,0.4740958
554.5401,4.493302,64.59759,0.4750733
554.5501,5.657359,62.49285,0.4750733
554.5601,7.70005,58.6371,0.4750733
554.5701,9.132739,55.71877,0.4760508
554.5801,10.68295,52.51743,0.4760508
554.5901,12.14361,49.03311,0.4760508
554.6001,13.54831,45.3896,0.4750733
554.6101,14.90264,41.56923,0.4740958
554.6201,15.52944,39.7121,0.4721408
554.6301,17.13002,34.15841,0.4692082
554.6401,17.56655,32.33665,0.4692082
554.6501,18.44518,26.88909,0.4672532
554.6601,18.60188,25.03196,0.4652981
554.6701,18.79216,21.31771,0.4652981
554.6801,18.78096,15.5164,0.4643206
554.6901,18.70261,13.50009,0.4633431
554.7001,18.18775,7.415798,0.4633431
554.7101,17.52737,3.330122,0.4643206
554.7202,16.58157,-0.6494433,0.4652981
554.7301,15.45669,-4.593625,0.4672532
554.7401,14.15832,-8.502437,0.4692082
554.7501,12.74242,-12.35818,0.4711632
554.7601,11.2202,-16.17855,0.4731183
554.7701,9.479716,-19.87511,0.4750733
554.7801,7.688859,-23.50094,0.4760508
554.7901,5.730111,-26.96758,0.4770283
554.8001,3.687419,-30.38115,0.4789834
554.8101,1.549584,-33.58248,0.4789834
554.8201,-0.6386123,-36.55388,0.4809384
554.8301,-2.92755,-39.45454,0.4809384
554.8401,-5.138137,-42.24907,0.4799609
554.8501,-7.315143,-45.06128,0.4809384
554.8601,-9.374628,-47.90888,0.4819159
554.8701,-11.46769,-50.70341,0.483871
554.8801,-13.45442,-53.33876,0.4868035
554.8901,-15.41316,-55.86799,0.4887586
554.9001,-17.27677,-58.18498,0.4907136
554.9102,-18.99487,-60.27203,0.4926686
554.9201,-20.70738,-62.16454,0.4936461
554.9301,-22.12887,-63.8271,0.4936461
554.9401,-23.42724,-65.48967,0.4936461
554.9501,-24.50175,-67.02843,0.4946237
554.9601,-25.5259,-68.56719,0.4946237
554.9701,-26.4605,-70.0529,0.4946237
554.9801,-27.26638,-71.43248,0.4946237
554.9901,-27.89318,-72.72363,0.4956012
555.0001,-28.43044,-73.97939,0.4956012
555.0101,-28.88935,-75.16441,0.4956012
555.0201,-29.32586,-76.27869,0.4956012
