time,pos_x,pos_y,pressure
193.2001,-0.728158,-68.88556,0.3323558
193.2101,-0.728158,-68.88556,0.3313783
193.2201,-0.728158,-68.88556,0.3323558
193.2301,-0.728158,-68.88556,0.3313783
193.2401,-0.728158,-68.88556,0.3323558
193.2501,-0.728158,-68.88556,0.3323558
193.2601,-0.728158,-68.88556,0.3323558
193.2701,-0.728158,-68.88556,0.3323558
193.2801,-0.728158,-68.88556,0.3333333
193.2901,-0.728158,-68.88556,0.3333333
193.3001,-0.728158,-68.85019,0.3323558
193.3101,-0.728158,-68.85019,0.3323558
193.3201,-0.728158,-68.85019,0.3323558
193.3301,-0.728158,-68.85019,0.3323558
193.3401,-0.728158,-68.85019,0.3333333
193.3501,-0.728158,-68.85019,0.3333333
193.3601,-0.728158,-68.85019,0.3333333
193.3701,-0.728158,-68.85019,0.3343109
193.3801,-0.728158,-68.85019,0.3343109
193.3901,-0.728158,-68.88556,0.3343109
193.4001,-0.728158,-68.88556,0.3343109
193.4101,-0.7001737,-68.88556,0.3343109
193.4201,-0.7001737,-68.88556,0.3333333
193.4301,-0.7001737,-68.88556,0.3343109
193.4401,-0.7001737,-68.88556,0.3343109
193.4501,-0.728158,-68.88556,0.3343109
193.4602,-0.7897195,-68.92094,0.3343109
193.4701,-0.856874,-68.92094,0.3362659
193.4801,-0.9688014,-68.93862,0.3362659
193.4901,-1.125502,-68.93862,0.3362659
193.5001,-1.343763,-68.93862,0.3372434
193.5101,-1.645968,-68.85019,0.3382209
193.5201,-2.032121,-68.72638,0.3391984
193.5301,-2.261579,-68.63794,0.3411535
193.5401,-2.877184,-68.4257,0.344086
193.5501,-4.2539,-68.00122,0.3528837
193.5601,-4.79116,-67.80666,0.3558162
193.5701,-5.932829,-67.25836,0.3626589
193.5801,-7.08569,-66.49783,0.3714565
193.5901,-9.05563,-64.85294,0.3831867
193.6001,-10.62823,-63.33187,0.3890518
193.6101,-12.43027,-61.35093,0.3919844
193.6201,-14.28269,-58.89246,0.3958944
193.6301,-16.30859,-56.04486,0.396872
193.6401,-18.1722,-52.84353,0.398827
193.6501,-20.10296,-49.57145,0.3998045
193.6601,-21.82106,-46.22862,0.4017595
193.6701,-23.40485,-42.86811,0.4017595
193.6801,-24.92708,-39.5076,0.4027371
193.6901,-26.27022,-35.82871,0.4027371
193.7001,-27.56299,-31.97297,0.4027371
193.7101,-28.74944,-27.71042,0.4027371
193.7201,-29.77358,-23.28869,0.4027371
193.7301,-30.60745,-18.77853,0.4027371
193.7401,-31.18388,-14.32143,0.4027371
193.7501,-31.44691,-10.05887,0.4037146
193.7604,-31.48608,-5.973197,0.4037146
193.7701,-31.32379,-1.958275,0.4066471
193.7801,-30.93764,1.968221,0.4076246
193.7901,-30.28286,6.053897,0.4076246
193.8002,-29.41541,10.26338,0.4105572
193.8101,-28.44723,14.52594,0.4115347
193.8201,-27.40629,18.71774,0.4134897
193.8301,-26.27022,22.75034,0.4134897
193.8402,-25.08378,26.42922,0.4144672
193.8501,-23.89174,29.87818,0.4134897
193.8602,-22.64933,32.99107,0.4134897
193.8701,-21.40693,35.87403,0.4134897
193.8801,-20.15333,38.58014,0.4144672
193.8901,-18.87735,41.03862,0.4144672
193.9001,-17.66292,43.32023,0.4144672
193.9101,-16.47089,45.40729,0.4134897
193.9201,-15.28445,47.33517,0.4134897
193.9301,-14.14278,49.17461,0.4144672
193.9401,-12.93954,50.85487,0.4134897
193.9501,-11.78109,52.44669,0.4154448
193.9601,-10.71777,53.96775,0.4144672
193.9701,-9.716008,55.50652,0.4154448
193.9801,-8.731038,56.99221,0.4154448
193.9901,-7.762857,58.38948,0.4154448
194.0001,-6.906604,59.716,0.4164223
194.0101,-6.134298,61.00715,0.4164223
194.0201,-5.294837,62.22754,0.4173998
194.0301,-4.399409,63.3772,0.4173998
194.0402,-3.257739,64.89826,0.4164223
194.0501,-2.955534,65.30508,0.4173998
194.0602,-2.558186,65.97717,0.4173998
194.0701,-2.239192,66.68465,0.4183773
194.0801,-2.149646,66.87921,0.4193548
194.0901,-1.931389,67.39212,0.4193548
194.1001,-1.86423,67.53362,0.4193548
194.1101,-1.645968,67.92274,0.4183773
194.1201,-1.517252,68.17034,0.4193548
194.1301,-1.455691,68.27647,0.4193548
194.1401,-1.326975,68.48872,0.4193548
194.1501,-1.198254,68.71865,0.4193548
194.1601,-1.164677,68.75402,0.4193548
194.1701,-1.136697,68.77171,0.4203323
194.1801,-1.108713,68.84246,0.4203323
194.1901,-0.9408219,69.09007,0.4203323
194.2001,-0.7113694,69.40843,0.4203323
194.2101,-0.392371,69.83292,0.4203323
194.2201,-0.2300778,70.04517,0.4203323
194.2301,0.06653413,70.46965,0.4203323
194.2401,0.2736003,70.75264,0.4193548
194.2501,0.3743368,70.89413,0.4193548
194.2601,0.3743368,70.82339,0.4193548
194.2701,0.2456208,70.64651,0.4193548
194.2801,0.1784615,70.50502,0.4193548
194.2901,-0.05099107,70.15128,0.4203323
194.3001,-0.1517276,69.95673,0.4203323
194.3101,-0.1797071,69.8506,0.4203323
194.3201,-0.2132843,69.76218,0.4203323
194.3301,-0.2132843,69.67374,0.4203323
194.3401,-0.2412686,69.54993,0.4203323
194.3501,-0.2412686,69.4438,0.4222874
194.3601,-0.2916345,69.30231,0.4222874
194.3701,-0.3308095,69.21387,0.4213099
194.3801,-0.3699846,69.14314,0.4222874
194.3901,-0.3699846,69.09007,0.4222874
194.4001,-0.4035667,69.0547,0.4222874
194.4101,-0.4035667,69.03701,0.4213099
194.4201,-0.4315461,68.98396,0.4222874
194.4301,-0.4315461,68.9132,0.4213099
194.4401,-0.4595304,68.84246,0.4213099
194.4501,-0.5322827,68.75402,0.4222874
194.4601,-0.5882463,68.6479,0.4222874
194.4701,-0.6721943,68.48872,0.4232649
194.4801,-0.7785239,68.29415,0.4222874
194.4901,-0.8960491,68.01116,0.4213099
194.5001,-0.9967856,67.65742,0.4222874
194.5101,-1.075136,67.19757,0.4222874
194.5201,-1.136697,66.66696,0.4222874
194.5301,-1.175872,66.10098,0.4222874
194.5401,-1.237429,65.49963,0.4222874
194.5501,-1.315779,64.91596,0.4222874
194.5601,-1.427711,64.24384,0.4222874
194.5701,-1.556427,63.39488,0.4222874
194.5801,-1.724319,62.33367,0.4213099
194.5901,-1.914596,61.09559,0.4222874
194.6001,-2.060105,59.75137,0.4222874
194.6101,-2.194419,58.31873,0.4222874
194.6201,-2.233594,56.85072,0.4222874
194.6301,-2.233594,55.24121,0.4222874
194.6401,-2.261579,53.52559,0.4222874
194.6501,-2.261579,51.52697,0.4232649
194.6601,-2.300749,49.22766,0.4232649
194.6701,-2.373506,46.71612,0.4232649
194.6801,-2.451856,44.02771,0.4242424
194.6901,-2.519011,41.26854,0.4232649
194.7001,-2.619747,38.33252,0.4232649
194.7101,-2.720484,35.02507,0.4242424
194.7201,-2.938741,29.59519,0.4242424
194.7301,-3.017091,27.685,0.4242424
194.7401,-3.436826,21.70681,0.42522
194.7501,-3.615908,19.67282,0.4261975
194.7601,-4.181147,13.2171,0.4261975
194.7701,-4.38262,10.98855,0.427175
194.7801,-4.919876,3.984538,0.427175
194.7901,-5.188503,-0.8263078,0.427175
194.8001,-5.317224,-5.654839,0.427175
194.8101,-5.317224,-8.07794,0.4281525
194.8201,-5.216487,-15.11734,0.4310851
194.8301,-5.154926,-17.34589,0.4310851
194.8401,-5.037401,-21.57306,0.4330401
194.8501,-4.886298,-27.1975,0.4330401
194.8601,-4.847123,-28.96619,0.4340176
194.8701,-4.79116,-32.32671,0.4340176
194.8801,-4.757577,-35.47498,0.4340176
194.8901,-4.729598,-38.57019,0.4340176
194.9001,-4.589686,-42.97423,0.4340176
194.9101,-4.371425,-45.92794,0.4349951
194.9201,-4.091606,-48.88166,0.4349951
194.9301,-3.783803,-51.81769,0.4349951
194.9401,-3.464805,-54.66528,0.4349951
194.9501,-3.157002,-57.33601,0.4349951
194.9601,-2.89957,-59.81218,0.4359726
194.9701,-2.709288,-62.0761,0.4359726
194.9801,-2.541397,-64.07472,0.4349951
194.9901,-2.42947,-65.94953,0.4369501
195.0001,-2.289558,-67.61211,0.4359726
195.0101,-2.200017,-69.22161,0.4349951
195.0201,-2.149646,-69.94678,0.4369501
195.0301,-1.970564,-71.85696,0.4369501
195.0401,-1.825055,-72.95355,0.4359726
195.0503,-1.645968,-73.94402,0.4369501
195.0601,-1.483675,-74.86374,0.4379277
195.0701,-1.36615,-75.60659,0.4379277
