time,pos_x,pos_y,pressure
1463.684,2.226751,-72.3522,0.6989247
1463.694,2.086844,-72.26376,0.6969697
1463.704,2.025283,-72.24608,0.6969697
1463.714,1.879773,-72.15764,0.6969697
1463.724,1.728671,-72.05152,0.6969697
1463.734,1.57197,-71.92771,0.6969697
1463.745,1.392889,-71.76853,0.6950147
1463.755,1.180225,-71.60934,0.6940371
1463.765,0.9451742,-71.45016,0.6920821
1463.775,0.6933352,-71.29098,0.6891496
1463.784,0.3855325,-71.07874,0.688172
1463.794,0.2344252,-70.97262,0.6901271
1463.804,0.1840593,-70.93725,0.6901271
1463.814,0.1169048,-70.88419,0.6930596
1463.824,0.08892057,-70.83112,0.6940371
1463.834,0.05534332,-70.83112,0.6940371
1463.844,0.02735907,-70.83112,0.6930596
1463.854,0.02735907,-70.83112,0.6920821
1463.865,0.02735907,-70.83112,0.6940371
1463.875,0.02735907,-70.83112,0.6959922
1463.885,0.02735907,-70.83112,0.6979472
1463.894,0.02735907,-70.83112,0.6979472
1463.905,0.02735907,-70.8665,0.6959922
1463.914,0.02735907,-70.8665,0.6969697
1463.924,0.05534332,-70.90187,0.6969697
1463.934,0.08892057,-70.97262,0.6979472
1463.944,0.1169048,-71.02568,0.6989247
1463.954,0.1169048,-71.06105,0.6999022
1463.964,0.1448843,-71.11411,0.7018573
1463.974,0.1448843,-71.11411,0.7028348
1463.984,0.1784615,-71.1318,0.7047898
1463.995,0.2064458,-71.20255,0.7057673
1464.005,0.2064458,-71.20255,0.7057673
1464.015,0.2064458,-71.22023,0.7038123
1464.025,0.2064458,-71.22023,0.7028348
1464.034,0.2064458,-71.22023,0.7018573
1464.044,0.1784615,-71.22023,0.7028348
1464.054,0.1784615,-71.22023,0.7018573
1464.064,0.1392865,-71.20255,0.7008798
1464.074,0.05534332,-71.14948,0.6989247
1464.084,-0.011816,-71.06105,0.6979472
1464.094,-0.1013569,-70.90187,0.6989247
1464.104,-0.2132843,-70.63657,0.6989247
1464.115,-0.353196,-70.1767,0.7008798
1464.125,-0.4819168,-69.46923,0.7028348
1464.135,-0.6274214,-68.40801,0.7028348
1464.144,-0.7785239,-66.92231,0.7038123
1464.155,-0.9464198,-65.06519,0.7038123
1464.164,-1.097522,-62.76589,0.7028348
1464.174,-1.20945,-60.00673,0.7008798
1464.184,-1.237429,-56.89383,0.6969697
1464.194,-1.159084,-53.46257,0.6920821
1464.204,-0.9464198,-49.85444,0.6852395
1464.214,-0.5994372,-46.03407,0.6793744
1464.224,-0.1013569,-42.00145,0.6783969
1464.234,0.5030577,-37.70353,0.6793744
1464.245,1.129854,-33.12262,0.6823069
1464.255,1.689496,-28.31178,0.684262
1464.265,2.109226,-23.25332,0.686217
1464.274,2.366663,-17.96493,0.688172
1464.284,2.472997,-12.44662,0.688172
1464.294,2.422626,-6.645298,0.688172
1464.305,2.187576,-0.7555674,0.688172
1464.314,1.790232,5.187246,0.6891496
1464.325,1.23059,11.13005,0.6911046
1464.334,0.57581,16.8783,0.6930596
1464.344,-0.09016613,22.37893,0.6950147
1464.354,-0.7393488,27.64963,0.6979472
1464.365,-1.354954,32.6904,0.6999022
1464.375,-1.970564,37.48355,0.7008798
1464.385,-2.597361,41.95834,0.7008798
1464.395,-3.257739,46.2032,0.7038123
1464.404,-3.934906,50.11201,0.7096774
1464.414,-4.600882,53.79089,0.714565
1464.424,-5.188503,57.09834,0.7194526
1464.434,-5.703377,60.10511,0.7204301
1464.444,-6.08953,62.70509,0.7204301
1464.454,-6.380544,64.86289,0.7223852
1464.464,-6.570821,66.61391,0.7223852
1464.474,-6.660362,67.95811,0.7233627
1464.484,-6.688346,68.96626,0.7253177
1464.495,-6.637976,69.74448,0.7262952
1464.505,-6.570821,70.4166,0.7282503
1464.515,-6.481276,70.9472,0.7302053
1464.525,-6.358158,71.31861,0.7341154
1464.535,-6.201457,71.54855,0.7380254
1464.545,-6.02237,71.67236,0.7419355
1464.554,-5.804109,71.70773,0.742913
1464.564,-5.406765,71.67236,0.7419355
1464.574,-5.238874,71.60162,0.7399805
1464.584,-4.578496,71.2125,0.7390029
1464.594,-4.321059,71.01794,0.7390029
1464.604,-3.49279,70.32816,0.7380254
1464.615,-3.000302,69.86829,0.7370479
1464.625,-2.77085,69.63837,0.7370479
1464.635,-2.379099,69.24925,0.7370479
1464.645,-2.060105,68.9132,0.7380254
1464.655,-1.791478,68.6479,0.7390029
1464.665,-1.52285,68.36491,0.7390029
1464.674,-1.466886,68.29415,0.7390029
1464.684,-1.388536,68.18804,0.7390029
1464.694,-1.343763,68.13497,0.7419355
1464.704,-1.343763,68.0996,0.7419355
1464.714,-1.315779,68.0996,0.7399805
1464.724,-1.315779,68.0996,0.740958
1464.734,-1.315779,68.0996,0.7399805
1464.745,-1.315779,68.0996,0.7399805
1464.755,-1.315779,68.0996,0.7390029
1464.765,-1.315779,68.0996,0.7380254
1464.775,-1.315779,68.0996,0.7390029
1464.784,-1.343763,68.13497,0.740958
1464.794,-1.377341,68.20573,0.7468231
1464.804,-1.405325,68.20573,0.7478006
1464.814,-1.433304,68.27647,0.7507331
1464.824,-1.478077,68.34722,0.7536657
1464.834,-1.506062,68.40028,0.7546432
1464.845,-1.534041,68.43565,0.7575758
1464.854,-1.567618,68.48872,0.7585533
1464.865,-1.595603,68.5064,0.7595308
1464.875,-1.595603,68.5064,0.7605083
1464.885,-1.623582,68.54177,0.7624633
1464.895,-1.657164,68.54177,0.7624633
1464.904,-1.685143,68.57716,0.7624633
1464.914,-1.685143,68.59484,0.7614858
1464.924,-1.724319,68.59484,0.7614858
1464.934,-1.78588,68.6479,0.7595308
1464.944,-1.813864,68.68327,0.7605083
1464.954,-1.875421,68.71865,0.7605083
1464.964,-1.964967,68.82476,0.7624633
1464.974,-1.992946,68.89552,0.7634408
1464.984,-2.082492,68.96626,0.7644184
1464.995,-2.149646,69.0547,0.7663734
1465.005,-2.222404,69.12545,0.7663734
1465.014,-2.250383,69.19619,0.7673509
1465.024,-2.300749,69.24925,0.7683284
1465.034,-2.339924,69.30231,0.7702835
1465.044,-2.373506,69.33768,0.7722385
1465.054,-2.401485,69.37306,0.7741935
1465.064,-2.42947,69.40843,0.7761486
1465.074,-2.42947,69.46149,0.7781036
1465.084,-2.463047,69.46149,0.7781036
1465.094,-2.463047,69.49687,0.7781036
1465.104,-2.463047,69.53224,0.7781036
1465.115,-2.491031,69.53224,0.7781036
1465.125,-2.491031,69.53224,0.7790811
1465.135,-2.491031,69.54993,0.7810361
1465.144,-2.519011,69.54993,0.7820137
1465.154,-2.519011,69.54993,0.7829912
1465.164,-2.519011,69.54993,0.7849463
1465.174,-2.519011,69.54993,0.7859238
1465.184,-2.519011,69.5853,0.7869013
1465.194,-2.519011,69.5853,0.7878788
1465.204,-2.552588,69.5853,0.7878788
1465.214,-2.552588,69.5853,0.7878788
1465.225,-2.580572,69.5853,0.7878788
1465.234,-2.580572,69.5853,0.7869013
1465.245,-2.580572,69.5853,0.7869013
1465.255,-2.580572,69.5853,0.7859238
1465.265,-2.608556,69.5853,0.7859238
1465.274,-2.608556,69.5853,0.7849463
1465.284,-2.642134,69.51456,0.7829912
1465.294,-2.737272,69.35537,0.7829912
1465.304,-2.865988,69.03701,0.7810361
1465.324,-3.375264,67.67512,0.7781036
1465.334,-3.744628,66.4901,0.7761486
1465.344,-4.203534,64.89826,0.7722385
1465.354,-4.690423,62.88196,0.7663734
1465.365,-5.216487,60.44117,0.7585533
1465.375,-5.781722,57.50513,0.7497556
1465.384,-6.402925,54.14463,0.740958
1465.394,-7.068902,50.23582,0.7302053
1465.404,-7.774048,45.95558,0.71652
1465.414,-8.507183,41.25086,0.7047898
1465.424,-9.257103,36.22778,0.6940371
1465.434,-10.0518,30.93939,0.6920821
1465.444,-10.95841,25.43876,0.6911046
1465.454,-12.03292,19.67282,0.6930596
1465.464,-13.23616,13.67696,0.6911046
1465.474,-14.51214,7.557292,0.6871945
1465.484,-15.76574,1.278435,0.6813294
1465.495,-16.95778,-5.000422,0.6744868
1465.505,-18.14422,-11.29697,0.6695992
1465.514,-19.35304,-17.55813,0.6656892
1465.524,-20.56747,-23.76624,0.6647117
1465.534,-21.68115,-29.74442,0.6637341
1465.544,-22.67732,-35.42191,0.6627566
1465.554,-23.54476,-40.74567,0.6617791
1465.564,-24.32826,-45.83951,0.6598241
1465.574,-25.44195,-52.8789,0.6588466
1465.584,-25.79453,-55.05439,0.6588466
1465.594,-26.39894,-59.03395,0.6588466
1465.604,-26.94739,-62.62439,0.6588466
1465.615,-27.42308,-65.80804,0.6598241
1465.625,-27.82043,-68.67332,0.6588466
1465.635,-28.21218,-71.16718,0.6588466
1465.645,-28.77741,-74.20932,0.6598241
1465.654,-28.9677,-75.02292,0.6598241
1465.664,-29.29789,-76.57937,0.6608016
