time,pos_x,pos_y,pressure
1553.314,-0.1741093,-69.20393,0.5503421
1553.324,-0.1741093,-69.20393,0.5503421
1553.334,-0.1741093,-69.20393,0.5513197
1553.344,-0.1741093,-69.16855,0.5522972
1553.354,-0.140532,-69.13318,0.5532747
1553.365,-0.140532,-69.13318,0.5542522
1553.385,-0.140532,-69.08012,0.5542522
1553.394,-0.1013569,-69.08012,0.5552297
1553.404,-0.1013569,-69.04475,0.5562072
1553.414,-0.0733775,-69.04475,0.5552297
1553.425,-0.03420244,-69.00937,0.5552297
1553.434,-0.0006203761,-69.00937,0.5562072
1553.444,0.03855469,-68.99168,0.5581623
1553.454,0.07772975,-68.99168,0.5610948
1553.464,0.1057092,-68.95631,0.5610948
1553.474,0.1448843,-68.92094,0.5610948
1553.484,0.2176366,-68.92094,0.5610948
1553.495,0.2456208,-68.92094,0.5610948
1553.505,0.3071823,-68.90324,0.5601173
1553.515,0.4135119,-68.90324,0.5610948
1553.524,0.4974599,-68.90324,0.5610948
1553.534,0.5646144,-68.90324,0.5630499
1553.544,0.6429645,-68.90324,0.5630499
1553.554,0.6765466,-68.90324,0.5630499
1553.564,0.7828761,-68.86787,0.5630499
1553.574,0.8556284,-68.8325,0.5620723
1553.584,0.9227878,-68.76175,0.5620723
1553.594,1.023524,-68.63794,0.5620723
1553.604,1.14105,-68.4257,0.5630499
1553.615,1.292152,-68.08965,0.5620723
1553.625,1.437657,-67.54136,0.5610948
1553.635,1.611145,-66.76313,0.5620723
1553.644,1.790232,-65.73729,0.5620723
1553.654,1.974912,-64.44614,0.5630499
1553.664,2.187576,-62.8897,0.5620723
1553.674,2.405838,-61.08563,0.5620723
1553.684,2.674465,-58.89246,0.5591398
1553.694,3.021443,-56.41629,0.5591398
1553.704,3.469157,-53.5687,0.5571848
1553.714,4.028799,-50.42042,0.5562072
1553.724,4.705966,-46.84766,0.5562072
1553.734,5.371942,-42.90348,0.5562072
1553.745,6.049109,-38.62325,0.5591398
1553.755,6.62554,-33.9539,0.5650049
1553.765,7.140409,-28.96619,0.572825
1553.775,7.548948,-23.78393,0.5816227
1553.785,7.935101,-18.56629,0.5874878
1553.795,8.198135,-13.24253,0.5904203
1553.804,8.366026,-7.759581,0.5913978
1553.814,8.42199,-2.13514,0.5923753
1553.824,8.343639,3.73692,0.5962855
1553.834,8.147764,9.67972,0.6021506
1553.844,7.828771,15.49871,0.6089932
1553.854,7.481793,21.08778,0.6148583
1553.865,7.129218,26.42922,0.6168133
1553.875,6.765451,31.45231,0.6177908
1553.885,6.334526,36.21009,0.6187683
1553.894,5.836445,40.72025,0.6197459
1553.904,5.248819,45.01818,0.6187683
1553.914,4.616425,49.06848,0.6187683
1553.924,3.905681,52.94191,0.6177908
1553.934,3.250896,56.49698,0.6187683
1553.944,2.624099,59.69832,0.6197459
1553.954,2.086844,62.40441,0.6207234
1553.964,1.611145,64.5799,0.6226784
1553.974,1.2194,66.22479,0.6226784
1553.984,0.8948035,67.40981,0.6236559
1553.995,0.6317737,68.18804,0.6265885
1554.005,0.452687,68.66558,0.6285435
1554.014,0.3463574,68.98396,0.6304985
1554.024,0.2736003,69.16082,0.6344086
1554.034,0.2456208,69.28462,0.6392962
1554.044,0.2456208,69.32,0.6451613
1554.054,0.2456208,69.35537,0.6529814
1554.064,0.2176366,69.35537,0.6598241
1554.074,0.2176366,69.35537,0.6637341
1554.084,0.2176366,69.35537,0.6686217
1554.094,0.2176366,69.28462,0.6705768
1554.104,0.1840593,69.21387,0.6735093
1554.115,0.1057092,69.09007,0.6774194
1554.125,0.01616825,68.98396,0.6774194
1554.135,-0.1517276,68.87783,0.6774194
1554.145,-0.2132843,68.84246,0.6774194
1554.155,-0.353196,68.84246,0.6793744
1554.164,-0.4931076,68.84246,0.6793744
1554.174,-0.6386123,68.84246,0.6793744
1554.184,-0.8065081,68.93089,0.6774194
1554.194,-0.856874,68.96626,0.6754643
1554.204,-0.9464198,69.07238,0.6774194
1554.214,-1.030363,69.19619,0.6774194
1554.224,-1.164677,69.4438,0.6832845
1554.234,-1.226238,69.51456,0.6852395
1554.245,-1.304588,69.67374,0.6891496
1554.255,-1.388536,69.83292,0.6911046
1554.265,-1.433304,69.97441,0.6911046
1554.274,-1.478077,70.11591,0.6920821
1554.285,-1.517252,70.2574,0.6950147
1554.294,-1.545237,70.38121,0.6979472
1554.304,-1.545237,70.43428,0.7008798
1554.314,-1.545237,70.46965,0.7028348
1554.324,-1.545237,70.52271,0.7057673
1554.334,-1.545237,70.55809,0.7067448
1554.344,-1.545237,70.55809,0.7067448
1554.354,-1.545237,70.55809,0.7047898
1554.365,-1.545237,70.55809,0.7018573
1554.375,-1.545237,70.55809,0.6989247
1554.385,-1.545237,70.57578,0.6969697
1554.394,-1.545237,70.57578,0.6969697
1554.404,-1.545237,70.57578,0.6969697
1554.414,-1.517252,70.57578,0.6989247
1554.424,-1.517252,70.57578,0.6989247
1554.434,-1.483675,70.57578,0.6989247
1554.444,-1.483675,70.57578,0.6979472
1554.454,-1.455691,70.61115,0.6959922
1554.464,-1.427711,70.61115,0.6930596
1554.474,-1.394129,70.61115,0.6911046
1554.485,-1.394129,70.64651,0.6911046
1554.495,-1.315779,70.6642,0.6901271
1554.505,-1.265413,70.69958,0.6911046
1554.515,-1.237429,70.69958,0.6920821
1554.525,-1.187063,70.73495,0.6940371
1554.534,-1.136697,70.73495,0.6920821
1554.544,-1.097522,70.73495,0.6920821
1554.554,-1.047152,70.73495,0.6901271
1554.564,-1.007976,70.73495,0.688172
1554.574,-0.9408219,70.73495,0.688172
1554.584,-0.9072447,70.73495,0.688172
1554.594,-0.8512762,70.69958,0.6871945
1554.604,-0.7785239,70.62883,0.688172
1554.615,-0.6777873,70.48734,0.6891496
1554.625,-0.5490713,70.20435,0.6891496
1554.635,-0.4091597,69.74448,0.688172
1554.645,-0.263655,69.00164,0.686217
1554.654,-0.0733775,67.86967,0.6832845
1554.664,0.1280956,66.26016,0.6793744
1554.674,0.323971,64.06698,0.6754643
1554.684,0.4862642,61.32551,0.6725318
1554.694,0.5142485,57.98269,0.6695992
1554.704,0.3967233,54.09156,0.6627566
1554.714,0.1392865,49.68753,0.6500489
1554.724,-0.2524594,44.78824,0.6334311
1554.734,-0.7169624,39.41142,0.6158358
1554.745,-1.304588,33.57474,0.6021506
1554.755,-2.032121,27.36664,0.5923753
1554.764,-3.0059,20.89322,0.5865102
1554.774,-4.209131,14.296,0.5855327
1554.785,-5.597043,7.698786,0.5855327
1554.794,-7.108077,0.9246923,0.5855327
1554.804,-8.658286,-5.743278,0.5835777
1554.814,-10.23088,-12.34049,0.5816227
1554.824,-11.86503,-18.86696,0.5796676
1554.834,-13.42643,-25.09276,0.5767351
1554.844,-14.97664,-31.17706,0.5767351
1554.855,-16.48208,-36.9253,0.5767351
1554.865,-17.93155,-42.23138,0.5786901
1554.875,-19.4258,-47.07759,0.5816227
1554.885,-20.87527,-51.46395,0.5826002
1554.894,-22.17364,-55.39044,0.5835777
1554.904,-23.34329,-58.9632,0.5826002
1554.914,-24.35065,-62.12916,0.5826002
1554.924,-25.25727,-64.99444,0.5826002
1554.934,-26.09113,-67.55904,0.5835777
1554.944,-26.82986,-69.80528,0.5845552
1554.955,-27.49584,-71.78622,0.5845552
1554.964,-28.04428,-73.48416,0.5855327
1554.974,-28.53117,-74.93449,0.5845552
1554.984,-28.90614,-76.20795,0.5855327
