time,pos_x,pos_y,pressure
5997.395,-0.8065081,-70.12365,0.8357771
5997.405,-0.8400854,-70.12365,0.8357771
5997.415,-0.8792605,-70.10596,0.8396872
5997.425,-0.9072447,-70.07059,0.8514174
5997.435,-0.9464198,-70.07059,0.856305
5997.445,-0.98559,-70.03522,0.8670577
5997.455,-1.047152,-70.03522,0.8748778
5997.465,-1.119909,-70.03522,0.8787879
5997.475,-1.187063,-70.03522,0.8826979
5997.485,-1.215047,-70.03522,0.8856305
5997.495,-1.254223,-70.01752,0.8875855
5997.505,-1.2878,-69.98215,0.8895406
5997.515,-1.315779,-69.98215,0.8895406
5997.525,-1.315779,-69.98215,0.888563
5997.535,-1.343763,-69.98215,0.888563
5997.545,-1.377341,-69.94678,0.8914956
5997.555,-1.377341,-69.94678,0.8934506
5997.565,-1.377341,-69.94678,0.8944281
5997.575,-1.377341,-69.94678,0.8924731
5997.585,-1.377341,-69.94678,0.8914956
5997.595,-1.377341,-69.94678,0.8905181
5997.605,-1.377341,-69.94678,0.8895406
5997.615,-1.377341,-69.94678,0.8905181
5997.625,-1.377341,-69.94678,0.8905181
5997.635,-1.377341,-69.94678,0.8914956
5997.645,-1.377341,-69.94678,0.8905181
5997.655,-1.377341,-69.94678,0.8905181
5997.665,-1.377341,-69.94678,0.8914956
5997.675,-1.377341,-69.94678,0.8905181
5997.685,-1.377341,-69.94678,0.8905181
5997.695,-1.377341,-69.94678,0.8905181
5997.705,-1.377341,-69.94678,0.8905181
5997.715,-1.377341,-69.94678,0.8905181
5997.725,-1.377341,-69.94678,0.8914956
5997.735,-1.377341,-69.94678,0.8924731
5997.745,-1.377341,-69.94678,0.8914956
5997.755,-1.377341,-69.94678,0.8914956
5997.765,-1.377341,-69.94678,0.8914956
5997.775,-1.377341,-69.94678,0.8905181
5997.785,-1.377341,-69.94678,0.8924731
5997.795,-1.377341,-69.94678,0.8924731
5997.805,-1.377341,-69.94678,0.8914956
5997.815,-1.377341,-69.94678,0.8895406
5997.825,-1.304588,-69.89371,0.8875855
5997.835,-1.215047,-69.73454,0.884653
5997.845,-1.019172,-69.39848,0.8836755
5997.855,-0.7001737,-68.81481,0.8817204
5997.865,-0.1909027,-67.84203,0.8797654
5997.875,0.4862642,-66.49783,0.8768328
5997.885,1.25857,-64.67608,0.8729228
5997.895,2.114824,-62.39446,0.8699902
5997.905,2.959886,-59.59993,0.8690127
5997.915,3.799347,-56.32785,0.8670577
5997.925,4.582848,-52.54285,0.8670577
5997.935,5.310381,-48.43949,0.8670577
5997.945,5.987548,-43.96469,0.8670577
5997.955,6.563978,-39.17154,0.8680352
5997.965,7.062058,-34.11308,0.8670577
5997.975,7.459407,-28.8247,0.8680352
5997.985,7.76721,-23.39481,0.8641251
5997.995,7.957487,-18.00031,0.8602151
5998.005,8.024647,-12.49967,0.856305
5998.015,7.974276,-6.981356,0.8514174
5998.025,7.84556,-1.463039,0.8504399
5998.035,7.627298,4.072964,0.8494624
5998.045,7.302707,9.538225,0.8465298
5998.055,6.899765,14.72049,0.8445748
5998.065,6.446453,19.60207,0.8416422
5998.075,6.004336,24.1653,0.8396872
5998.085,5.528643,28.39247,0.8387097
5998.095,5.282396,30.33803,0.8387097
5998.105,4.543673,35.82098,0.8387097
5998.115,4.056784,39.12843,0.8377321
5998.125,3.609069,42.17058,0.8308895
5998.135,3.150164,45.07123,0.8201368
5998.145,2.674465,47.75965,0.8123167
5998.155,2.198771,50.30656,0.8035191
5998.165,1.739866,52.72968,0.8025416
5998.175,1.370502,55.02896,0.8035191
5998.185,0.9451742,58.15955,0.8064516
5998.195,0.794067,59.89287,0.8074291
5998.205,0.6429645,61.36089,0.8084067
5998.215,0.5925986,62.61666,0.8103617
5998.225,0.5030577,63.71324,0.8093842
5998.235,0.4638826,64.66834,0.8064516
5998.245,0.4247075,65.11051,0.8064516
5998.255,0.3463574,66.31322,0.8123167
5998.265,0.3183731,66.66696,0.8172043
5998.275,0.3183731,67.28601,0.8289345
5998.285,0.3967233,68.04653,0.8416422
5998.295,0.4862642,68.27647,0.8426197
5998.305,0.8612263,68.98396,0.8426197
5998.315,1.113065,69.37306,0.8426197
5998.325,1.292152,69.69142,0.8416422
5998.335,1.381693,69.90367,0.8426197
5998.345,1.381693,69.97441,0.8435972
5998.355,1.409677,70.08054,0.8484849
5998.365,1.409677,70.09822,0.8514174
5998.375,1.437657,70.09822,0.8553275
5998.385,1.437657,70.15128,0.85826
5998.395,1.471234,70.27509,0.856305
5998.405,1.57197,70.69958,0.8553275
5998.415,1.650321,71.08869,0.85435
5998.425,1.71748,71.44242,0.8553275
5998.435,1.751057,71.69004,0.8553275
5998.445,1.790232,71.79617,0.8572825
5998.455,1.790232,71.83154,0.8602151
5998.465,1.818216,71.83154,0.8651026
5998.475,1.818216,71.83154,0.8651026
5998.485,1.818216,71.83154,0.8651026
5998.495,1.818216,71.83154,0.8621701
5998.505,1.818216,71.83154,0.8611926
5998.515,1.818216,71.83154,0.8631476
5998.525,1.818216,71.83154,0.8660802
5998.535,1.818216,71.83154,0.8660802
5998.545,1.818216,71.83154,0.8680352
5998.555,1.818216,71.83154,0.8680352
5998.565,1.818216,71.83154,0.8670577
5998.575,1.818216,71.83154,0.8680352
5998.585,1.846196,71.81385,0.8660802
5998.595,1.846196,71.81385,0.8651026
5998.605,1.846196,71.77848,0.8651026
5998.615,1.846196,71.77848,0.8660802
5998.625,1.879773,71.77848,0.8670577
5998.635,1.879773,71.77848,0.8680352
5998.645,1.879773,71.77848,0.8690127
5998.655,1.879773,71.77848,0.8690127
5998.665,1.907757,71.77848,0.8699902
5998.675,1.907757,71.77848,0.8699902
5998.685,1.907757,71.77848,0.8690127
5998.695,1.907757,71.77848,0.8690127
5998.705,1.907757,71.77848,0.8690127
5998.715,1.907757,71.77848,0.8709677
5998.725,1.907757,71.77848,0.8729228
5998.735,1.907757,71.77848,0.8758553
5998.745,1.907757,71.77848,0.8758553
5998.755,1.907757,71.77848,0.8758553
5998.765,1.907757,71.74311,0.8748778
5998.775,1.907757,71.74311,0.8739003
5998.785,1.907757,71.74311,0.8758553
5998.795,1.907757,71.74311,0.8787879
5998.805,1.907757,71.74311,0.8817204
5998.815,1.907757,71.74311,0.8856305
5998.825,1.907757,71.74311,0.8875855
5998.835,1.907757,71.70773,0.8875855
5998.845,1.946932,71.60162,0.8875855
5998.855,2.075649,71.14175,0.8836755
5998.865,2.237947,70.59346,0.8836755
5998.875,2.472997,69.86829,0.8826979
5998.885,2.775202,68.93089,0.8826979
5998.895,2.954288,68.36491,0.8836755
5998.905,3.569894,65.85336,0.8836755
5998.915,3.989624,63.41257,0.8836755
5998.925,4.196695,61.90918,0.8836755
5998.935,4.644404,58.47792,0.8836755
5998.945,5.108908,54.4453,0.8817204
5998.955,5.914795,47.44129,0.8826979
5998.965,6.474437,42.4182,0.8817204
5998.975,6.743065,39.8536,0.8817204
5998.985,7.70005,32.00061,0.8807429
5998.995,8.416392,26.64147,0.8787879
5999.005,9.222275,21.12315,0.8787879
5999.015,10.06733,15.53408,0.8787879
5999.025,10.97956,9.8389,0.8778104
5999.035,11.96452,4.002223,0.8807429
5999.045,13.05023,-1.799096,0.8817204
5999.055,14.21428,-7.635772,0.8826979
5999.065,15.45669,-13.43708,0.884653
5999.075,16.71029,-19.0969,0.8856305
5999.085,17.9359,-24.52678,0.884653
5999.095,19.07198,-29.74442,0.8836755
5999.105,20.1241,-34.59063,0.8817204
5999.115,21.12027,-39.08311,0.8817204
5999.125,22.09405,-43.13342,0.8856305
5999.135,23.07901,-46.79461,0.888563
5999.145,24.11435,-50.10206,0.8924731
5999.155,25.12171,-53.12652,0.8934506
5999.165,25.97796,-56.02717,0.8914956
5999.175,26.63274,-58.71558,0.8895406
5999.185,27.09165,-61.24482,0.888563
5999.195,27.46661,-63.57949,0.888563
5999.205,27.82478,-65.75497,0.8895406
5999.215,28.19415,-67.85972,0.8924731
5999.225,28.60268,-69.84066,0.8944281
5999.235,28.96085,-71.59166,0.8954057
5999.245,29.24068,-73.18348,0.8934506
5999.255,29.40856,-74.56306,0.888563
5999.265,29.47013,-75.74809,0.8826979
