time,pos_x,pos_y,pressure
6174.235,-0.3420052,-70.44201,0.684262
6174.245,-0.3140209,-70.44201,0.6832845
6174.255,-0.3140209,-70.44201,0.6832845
6174.265,-0.2692528,-70.44201,0.6832845
6174.275,-0.2692528,-70.44201,0.6832845
6174.285,-0.2692528,-70.44201,0.6832845
6174.295,-0.2692528,-70.44201,0.6832845
6174.305,-0.2692528,-70.44201,0.6852395
6174.315,-0.2692528,-70.44201,0.6911046
6174.325,-0.3028301,-70.44201,0.6959922
6174.335,-0.3028301,-70.44201,0.7028348
6174.345,-0.3028301,-70.44201,0.7077224
6174.355,-0.3028301,-70.44201,0.7096774
6174.365,-0.3028301,-70.44201,0.7126099
6174.375,-0.3028301,-70.44201,0.714565
6174.385,-0.392371,-70.44201,0.714565
6174.395,-0.5322827,-70.44201,0.7155425
6174.405,-0.688983,-70.40663,0.71652
6174.415,-0.8680696,-70.37126,0.7174975
6174.425,-1.030363,-70.3182,0.7194526
6174.435,-1.198254,-70.24745,0.7214077
6174.445,-1.377341,-70.1767,0.7223852
6174.455,-1.623582,-70.0529,0.7233627
6174.465,-1.970564,-69.91141,0.7233627
6174.475,-2.451856,-69.71685,0.7223852
6174.485,-3.129023,-69.45155,0.7214077
6174.495,-4.013256,-69.18624,0.7214077
6174.505,-5.037401,-68.85019,0.718475
6174.515,-6.139896,-68.4257,0.7194526
6174.525,-7.275968,-67.84203,0.718475
6174.535,-8.479199,-66.99306,0.718475
6174.545,-10.39877,-65.1713,0.718475
6174.555,-11.09833,-64.41077,0.7194526
6174.565,-13.29772,-61.51012,0.7194526
6174.575,-14.05324,-60.3251,0.718475
6174.585,-16.35896,-56.06255,0.7106549
6174.595,-17.11447,-54.41767,0.7057673
6174.605,-18.64789,-50.91565,0.6940371
6174.615,-20.17012,-47.07759,0.6793744
6174.625,-21.55244,-42.97423,0.6754643
6174.635,-23.20338,-36.48313,0.6695992
6174.645,-23.6343,-34.25459,0.6715543
6174.655,-24.2611,-29.74442,0.6774194
6174.665,-24.64726,-25.07507,0.688172
6174.675,-24.87671,-20.31729,0.6999022
6174.685,-24.92708,-15.45339,0.7057673
6174.695,-24.64726,-8.007199,0.7038123
6174.705,-24.44019,-5.513344,0.7018573
6174.715,-23.86376,-0.4902639,0.6911046
6174.725,-22.53741,7.009,0.686217
6174.735,-21.99455,9.467472,0.6852395
6174.745,-20.24288,16.59531,0.6852395
6174.755,-19.02845,21.10547,0.684262
6174.765,-17.81403,25.40339,0.686217
6174.775,-16.6108,29.47138,0.688172
6174.785,-15.42436,33.221,0.6911046
6174.795,-14.27149,36.75838,0.6950147
6174.815,-12.59816,41.55154,0.6979472
6174.825,-12.0833,43.03724,0.6979472
6174.835,-10.1917,48.48481,0.6999022
6174.845,-9.374628,50.87255,0.7018573
6174.855,-8.641498,52.99498,0.7047898
6174.865,-7.969923,54.79905,0.7067448
6174.875,-7.455054,56.37318,0.7096774
6174.885,-7.046515,57.68201,0.7096774
6174.895,-6.716326,58.76091,0.7096774
6174.905,-6.442101,59.69832,0.7096774
6174.915,-6.139896,60.60035,0.7106549
6174.925,-5.781722,61.55544,0.7116324
6174.935,-5.356394,62.54591,0.7106549
6174.945,-4.908685,63.58944,0.7106549
6174.955,-4.679227,64.10236,0.7106549
6174.965,-4.472161,64.59759,0.7116324
6174.975,-4.102797,65.46426,0.7096774
6174.985,-3.733433,66.50778,0.7096774
6174.995,-3.50398,67.1622,0.7077224
6175.005,-3.364069,67.49825,0.7106549
6175.015,-3.207373,67.81661,0.7135875
6175.025,-2.955534,68.18804,0.7174975
6175.035,-2.630938,68.66558,0.7214077
6175.045,-2.250383,69.1785,0.7204301
6175.055,-1.881019,69.70911,0.718475
6175.065,-1.573216,70.22203,0.71652
6175.075,-1.377341,70.59346,0.7126099
6175.085,-1.2878,70.84108,0.7096774
6175.095,-1.254223,70.9472,0.7106549
6175.105,-1.254223,70.98257,0.7126099
6175.115,-1.254223,71.01794,0.714565
6175.125,-1.254223,71.05331,0.7155425
6175.135,-1.254223,71.08869,0.714565
6175.145,-1.254223,71.12406,0.7126099
6175.155,-1.226238,71.12406,0.7116324
6175.165,-1.226238,71.14175,0.7106549
6175.175,-1.226238,71.14175,0.7096774
6175.185,-1.226238,71.12406,0.7096774
6175.195,-1.198254,71.12406,0.7106549
6175.205,-1.198254,71.12406,0.7096774
6175.215,-1.198254,71.12406,0.7096774
6175.225,-1.198254,71.12406,0.7096774
6175.235,-1.198254,71.12406,0.7096774
6175.245,-1.198254,71.12406,0.7096774
6175.255,-1.198254,71.14175,0.7096774
6175.265,-1.198254,71.14175,0.7096774
6175.275,-1.198254,71.14175,0.7096774
6175.285,-1.198254,71.17712,0.7096774
6175.295,-1.198254,71.17712,0.7096774
6175.305,-1.198254,71.17712,0.7096774
6175.315,-1.198254,71.17712,0.7086999
6175.325,-1.198254,71.2125,0.7077224
6175.335,-1.198254,71.2125,0.7067448
6175.345,-1.198254,71.23019,0.7077224
6175.355,-1.198254,71.23019,0.7067448
6175.365,-1.198254,71.23019,0.7077224
6175.375,-1.198254,71.23019,0.7077224
6175.385,-1.198254,71.23019,0.7057673
6175.395,-1.198254,71.23019,0.7067448
6175.405,-1.198254,71.23019,0.7057673
6175.415,-1.198254,71.23019,0.7047898
6175.425,-1.198254,71.23019,0.7038123
6175.435,-1.198254,71.23019,0.7047898
6175.445,-1.198254,71.23019,0.7047898
6175.455,-1.198254,71.23019,0.7057673
6175.465,-1.198254,71.23019,0.7057673
6175.475,-1.198254,71.23019,0.7067448
6175.485,-1.198254,71.23019,0.7067448
6175.495,-1.198254,71.23019,0.7067448
6175.505,-1.198254,71.23019,0.7057673
6175.515,-1.198254,71.23019,0.7057673
6175.525,-1.198254,71.23019,0.7077224
6175.535,-1.198254,71.23019,0.7077224
6175.545,-1.198254,71.23019,0.7077224
6175.555,-1.198254,71.23019,0.7086999
6175.565,-1.198254,71.26556,0.7096774
6175.575,-1.198254,71.26556,0.7077224
6175.585,-1.198254,71.26556,0.7086999
6175.595,-1.198254,71.26556,0.7086999
6175.605,-1.198254,71.26556,0.7077224
6175.615,-1.198254,71.26556,0.7086999
6175.625,-1.198254,71.26556,0.7086999
6175.635,-1.198254,71.30093,0.7086999
6175.645,-1.198254,71.30093,0.7106549
6175.655,-1.198254,71.33631,0.7116324
6175.665,-1.237429,71.33631,0.7116324
6175.675,-1.265413,71.354,0.7126099
6175.685,-1.338166,71.38937,0.7126099
6175.695,-1.433304,71.42474,0.7126099
6175.705,-1.595603,71.42474,0.7126099
6175.715,-1.836246,71.31861,0.7126099
6175.725,-2.172033,71.14175,0.7116324
6175.735,-2.658922,70.82339,0.7106549
6175.745,-3.308105,70.4166,0.7106549
6175.755,-4.102797,69.86829,0.7096774
6175.765,-4.998226,69.23156,0.7096774
6175.775,-5.921634,68.43565,0.7096774
6175.785,-6.940186,67.3037,0.7086999
6175.795,-8.07066,65.72955,0.7096774
6175.805,-9.385818,63.67787,0.7086999
6175.815,-10.86887,61.27245,0.7067448
6175.825,-12.45825,58.51329,0.7067448
6175.835,-14.05324,55.55957,0.7057673
6175.845,-15.57546,52.34056,0.7057673
6175.855,-17.02493,48.89162,0.7067448
6175.865,-18.37927,45.19504,0.7067448
6175.875,-19.70562,41.05631,0.7067448
6175.885,-20.97601,36.44003,0.7077224
6175.895,-22.16245,31.34619,0.7086999
6175.905,-23.22577,25.95168,0.7086999
6175.915,-24.22193,20.22112,0.7096774
6175.925,-25.18451,14.36676,0.7106549
6175.935,-26.1415,8.423943,0.7106549
6175.945,-27.45666,-0.5963745,0.71652
6175.955,-27.80364,-3.585466,0.7204301
6175.965,-28.38007,-9.528267,0.7243402
6175.975,-28.93971,-18.23023,0.7311828
6175.985,-29.04605,-21.00708,0.7321603
6175.995,-29.23632,-28.96619,0.7321603
6176.005,-29.23632,-31.46005,0.7321603
6176.015,-29.12439,-38.60556,0.7341154
6176.025,-29.03485,-40.92255,0.7341154
6176.035,-28.7998,-45.34427,0.7360704
6176.045,-28.57035,-49.60682,0.7360704
6176.055,-28.39126,-53.62176,0.7331378
6176.065,-28.34089,-57.37138,0.7292278
6176.075,-28.39126,-62.42984,0.7214077
6176.085,-28.53117,-65.41892,0.718475
6176.095,-28.74944,-68.10734,0.7174975
6176.105,-28.86696,-69.31005,0.7194526
6176.115,-29.17476,-72.38757,0.7253177
6176.125,-29.2643,-73.25423,0.7282503
6176.135,-29.4266,-75.34129,0.7341154
6176.145,-29.48256,-76.49094,0.7380254
