time,pos_x,pos_y,pressure
31872.89,1.678305,-71.04337,0.5943304
31872.9,1.678305,-71.008,0.5953079
31872.91,1.650321,-70.97262,0.5962855
31872.92,1.616743,-70.95493,0.5962855
31872.93,1.56078,-70.90187,0.597263
31872.94,1.521605,-70.90187,0.597263
31872.95,1.488027,-70.90187,0.5962855
31872.96,1.437657,-70.90187,0.597263
31872.97,1.409677,-70.93725,0.5982405
31872.98,1.381693,-70.97262,0.5962855
31872.99,1.381693,-70.9903,0.5962855
31873,1.381693,-70.9903,0.5953079
31873.01,1.348116,-70.9903,0.5953079
31873.02,1.348116,-70.9903,0.5962855
31873.03,1.320131,-70.9903,0.5962855
31873.04,1.292152,-70.97262,0.5953079
31873.05,1.23059,-70.97262,0.5962855
31873.06,1.169029,-70.93725,0.597263
31873.07,1.079488,-70.93725,0.5962855
31873.08,0.9899423,-70.90187,0.5982405
31873.09,0.9004014,-70.90187,0.5982405
31873.1,0.8108604,-70.90187,0.597263
31873.11,0.7325103,-70.90187,0.5982405
31873.12,0.6765466,-70.90187,0.597263
31873.13,0.6429645,-70.90187,0.597263
31873.14,0.6037894,-70.90187,0.5982405
31873.15,0.57581,-70.90187,0.5982405
31873.16,0.57581,-70.90187,0.5962855
31873.17,0.5422328,-70.90187,0.597263
31873.18,0.5422328,-70.90187,0.597263
31873.19,0.5422328,-70.90187,0.5962855
31873.2,0.5422328,-70.90187,0.5962855
31873.21,0.57581,-70.88419,0.5953079
31873.22,0.614985,-70.79575,0.5933529
31873.23,0.6429645,-70.63657,0.5933529
31873.24,0.6037894,-70.33588,0.5923753
31873.25,0.5030577,-69.7876,0.5923753
31873.26,0.3351618,-69.04475,0.5933529
31873.27,0.1560751,-68.03659,0.5933529
31873.28,-0.06218188,-66.71007,0.5933529
31873.29,-0.3308095,-65.02981,0.5933529
31873.3,-0.6609987,-62.80126,0.5933529
31873.31,-1.069538,-59.91829,0.5923753
31873.32,-1.455691,-56.36322,0.5933529
31873.33,-1.836246,-52.08299,0.5953079
31873.34,-2.200017,-47.18371,0.597263
31873.35,-2.502222,-41.66539,0.6021506
31873.36,-2.759659,-35.66953,0.6070381
31873.37,-3.000302,-29.14306,0.6099707
31873.38,-3.157002,-22.05061,0.6138808
31873.39,-3.246548,-14.37449,0.6177908
31873.4,-3.168198,-6.220816,0.6207234
31873.41,-2.938741,2.109715,0.629521
31873.42,-2.552588,10.42257,0.6353861
31873.43,-2.082492,18.47012,0.6402737
31873.44,-1.556427,26.02242,0.6451613
31873.45,-0.98559,32.93801,0.6471163
31873.46,-0.4315461,39.14611,0.6500489
31873.47,0.1392865,44.80593,0.6549364
31873.48,0.6653509,50.00589,0.6588466
31873.49,1.129854,54.5868,0.6627566
31873.5,1.48243,58.42485,0.6666667
31873.51,1.63913,61.48469,0.6686217
31873.52,1.63913,63.74862,0.6676442
31873.53,1.420868,65.41119,0.6676442
31873.54,1.051504,66.4901,0.6676442
31873.55,0.2736003,67.35675,0.6725318
31873.56,-0.2692528,67.60436,0.6793744
31873.57,-0.7505444,67.71049,0.6891496
31873.58,-1.125502,67.72817,0.6979472
31873.59,-1.276604,67.76354,0.7008798
31873.6,-1.556427,67.76354,0.7047898
31873.61,-1.657164,67.76354,0.7047898
31873.62,-1.685143,67.76354,0.7038123
31873.63,-1.724319,67.76354,0.7028348
31873.64,-1.752303,67.72817,0.7028348
31873.65,-1.752303,67.65742,0.7008798
31873.66,-1.752303,67.56899,0.7038123
31873.67,-1.752303,67.53362,0.7038123
31873.68,-1.752303,67.4275,0.7067448
31873.69,-1.713128,67.39212,0.7086999
31873.7,-1.673953,67.35675,0.7067448
31873.71,-1.673953,67.35675,0.7057673
31873.72,-1.645968,67.32138,0.7067448
31873.73,-1.645968,67.32138,0.7057673
31873.74,-1.645968,67.32138,0.7047898
31873.75,-1.645968,67.32138,0.7057673
31873.76,-1.673953,67.32138,0.7047898
31873.77,-1.713128,67.32138,0.7038123
31873.78,-1.763494,67.32138,0.7047898
31873.79,-1.791478,67.3037,0.7057673
31873.8,-1.836246,67.3037,0.7067448
31873.81,-1.836246,67.26833,0.7096774
31873.82,-1.86423,67.26833,0.7096774
31873.83,-1.86423,67.26833,0.7077224
31873.84,-1.86423,67.26833,0.7077224
31873.85,-1.86423,67.26833,0.7067448
31873.86,-1.86423,67.26833,0.7047898
31873.87,-1.86423,67.26833,0.7038123
31873.88,-1.86423,67.26833,0.7028348
31873.89,-1.86423,67.26833,0.7028348
31873.9,-1.86423,67.26833,0.7057673
31873.91,-1.86423,67.26833,0.7057673
31873.92,-1.86423,67.26833,0.7018573
31873.93,-1.892214,67.26833,0.7008798
31873.94,-1.892214,67.26833,0.6979472
31873.95,-1.892214,67.3037,0.6959922
31873.96,-1.86423,67.33907,0.6969697
31873.97,-1.86423,67.39212,0.6979472
31873.98,-1.836246,67.44519,0.6979472
31873.99,-1.802669,67.48056,0.6969697
31874,-1.802669,67.53362,0.6940371
31874.01,-1.802669,67.56899,0.6950147
31874.02,-1.802669,67.56899,0.6940371
31874.03,-1.802669,67.56899,0.6950147
31874.04,-1.802669,67.56899,0.6911046
31874.05,-1.802669,67.56899,0.6891496
31874.06,-1.802669,67.53362,0.6871945
31874.07,-1.802669,67.49825,0.6823069
31874.08,-1.802669,67.49825,0.6803519
31874.09,-1.802669,67.49825,0.6793744
31874.1,-1.774689,67.49825,0.6774194
31874.11,-1.774689,67.49825,0.6764418
31874.12,-1.746705,67.49825,0.6754643
31874.13,-1.746705,67.53362,0.6744868
31874.14,-1.701932,67.58668,0.6754643
31874.15,-1.673953,67.63974,0.6754643
31874.16,-1.634778,67.6928,0.6754643
31874.17,-1.606793,67.74586,0.6744868
31874.18,-1.573216,67.81661,0.6754643
31874.19,-1.545237,67.88735,0.6744868
31874.2,-1.517252,67.94042,0.6774194
31874.21,-1.517252,67.99348,0.6793744
31874.22,-1.483675,67.99348,0.6803519
31874.23,-1.483675,68.02885,0.6813294
31874.24,-1.4445,68.02885,0.6793744
31874.25,-1.405325,68.02885,0.6783969
31874.26,-1.315779,67.94042,0.6783969
31874.27,-1.164677,67.79893,0.6774194
31874.28,-0.9072447,67.51593,0.6774194
31874.29,-0.5210871,66.96764,0.6774194
31874.3,-0.03420244,66.03023,0.6744868
31874.31,0.5422328,64.5799,0.6725318
31874.32,1.129854,62.5636,0.6725318
31874.33,1.71748,59.94593,0.6715543
31874.34,2.333085,56.70922,0.6715543
31874.35,3.043829,52.8358,0.6735093
31874.36,3.85531,48.34331,0.6744868
31874.37,4.784316,43.12568,0.6725318
31874.38,5.79727,37.09444,0.6725318
31874.39,7.050868,30.30266,0.6715543
31874.4,8.483551,22.80341,0.6715543
31874.41,11.27056,10.58175,0.6725318
31874.42,12.27792,6.460695,0.6744868
31874.43,14.47172,-1.728342,0.6744868
31874.44,16.72148,-9.492896,0.6774194
31874.45,18.89289,-16.69147,0.6803519
31874.46,20.83485,-23.28869,0.6803519
31874.47,23.42039,-32.36208,0.6823069
31874.48,24.95382,-38.02189,0.684262
31874.49,25.65896,-40.69262,0.6832845
31874.5,27.6401,-48.15649,0.6832845
31874.51,28.75378,-52.4721,0.684262
31874.52,29.81711,-56.36322,0.686217
31874.53,30.30399,-58.1496,0.6871945
31874.54,31.17144,-61.42168,0.688172
31874.55,32.1732,-65.7196,0.6871945
31874.56,32.71045,-68.12502,0.686217
31874.57,33.15258,-70.21207,0.688172
31874.58,33.49955,-71.91003,0.6901271
31874.59,33.62827,-72.63519,0.6901271
31874.6,33.87451,-74.35082,0.6911046
31874.61,33.95846,-75.19979,0.6920821
31874.62,34.08717,-75.88958,0.6901271
31874.63,34.16552,-76.20795,0.6920821
31874.64,34.39498,-76.96848,0.6901271
31874.65,34.45094,-77.21609,0.6901271
