time,pos_x,pos_y,pressure
4002.229,-0.09016613,-70.28282,0.4604106
4002.239,-0.06218188,-70.28282,0.4604106
4002.249,-0.06218188,-70.26514,0.4604106
4002.259,-0.06218188,-70.26514,0.4604106
4002.269,-0.06218188,-70.26514,0.4613881
4002.279,-0.1013569,-70.26514,0.4613881
4002.289,-0.1349342,-70.26514,0.4613881
4002.299,-0.1629184,-70.26514,0.4613881
4002.309,-0.1629184,-70.26514,0.4613881
4002.319,-0.1629184,-70.26514,0.4613881
4002.329,-0.1629184,-70.28282,0.4613881
4002.339,-0.1629184,-70.28282,0.4613881
4002.349,-0.1629184,-70.28282,0.4613881
4002.359,-0.1909027,-70.28282,0.4623656
4002.369,-0.1909027,-70.28282,0.4613881
4002.379,-0.1909027,-70.28282,0.4613881
4002.389,-0.22448,-70.28282,0.4623656
4002.399,-0.2524594,-70.28282,0.4623656
4002.409,-0.2804436,-70.28282,0.4623656
4002.419,-0.2804436,-70.28282,0.4633431
4002.429,-0.2804436,-70.28282,0.4633431
4002.439,-0.2804436,-70.28282,0.4633431
4002.449,-0.2804436,-70.22977,0.4633431
4002.459,-0.3196187,-70.08827,0.4633431
4002.469,-0.3587938,-69.82297,0.4643206
4002.479,-0.4819168,-69.43385,0.4643206
4002.489,-0.6721943,-68.97399,0.4652981
4002.499,-0.9296263,-68.49644,0.4682307
4002.509,-1.254223,-68.01891,0.4750733
4002.519,-1.612391,-67.52367,0.4819159
4002.529,-1.992946,-66.97537,0.4897361
4002.539,-2.412681,-66.2679,0.5014663
4002.549,-2.910761,-65.41892,0.516129
4002.559,-3.487192,-64.42846,0.5347019
4002.569,-4.220322,-63.17269,0.5532747
4002.579,-5.015014,-61.68699,0.5679374
4002.589,-5.904845,-59.86524,0.5806451
4002.599,-6.895413,-57.83124,0.5923753
4002.609,-8.081856,-55.62037,0.6021506
4002.619,-9.346643,-53.23264,0.6089932
4002.629,-10.65061,-50.70341,0.6138808
4002.639,-11.96017,-47.97963,0.6168133
4002.649,-13.14662,-45.0436,0.6177908
4002.659,-14.24911,-41.89533,0.6197459
4002.669,-15.22848,-38.42869,0.6197459
4002.679,-16.10152,-34.64369,0.6207234
4002.689,-17.03613,-30.54033,0.6226784
4002.699,-17.98192,-25.9771,0.6236559
4002.709,-18.83817,-21.02477,0.6256109
4002.719,-19.56571,-15.70101,0.6334311
4002.729,-20.09177,-10.25344,0.6451613
4002.739,-20.43875,-4.699749,0.6608016
4002.749,-20.61783,0.8185682,0.6744868
4002.759,-20.52829,6.160021,0.6823069
4002.769,-20.15893,11.43072,0.684262
4002.779,-19.5769,16.68373,0.6852395
4002.789,-18.68707,21.81294,0.686217
4002.799,-17.5454,26.81833,0.686217
4002.809,-16.25263,31.59381,0.686217
4002.819,-14.82554,35.99784,0.6832845
4002.829,-13.3257,39.95972,0.6783969
4002.839,-11.81467,43.51479,0.6744868
4002.849,-10.27005,46.69844,0.6715543
4002.859,-8.876543,49.40453,0.6656892
4002.869,-7.684507,51.84533,0.6588466
4002.879,-6.677151,54.07388,0.6500489
4002.889,-5.843284,56.1963,0.6432062
4002.899,-5.098962,58.30105,0.6402737
4002.909,-4.119586,61.27245,0.6373411
4002.919,-3.845365,62.17449,0.6373411
4002.929,-3.436826,63.83705,0.6392962
4002.939,-3.224162,65.26969,0.6441838
4002.949,-3.168198,66.3309,0.6480938
4002.959,-3.224162,67.07376,0.6520039
4002.969,-3.324898,67.56899,0.6529814
4002.979,-3.403244,68.02885,0.6529814
4002.989,-3.403244,68.29415,0.6529814
4003.009,-3.095441,68.89552,0.6529814
4003.019,-3.000302,69.07238,0.6529814
4003.029,-2.686907,69.53224,0.6529814
4003.039,-2.591763,69.69142,0.6529814
4003.049,-2.311944,70.18666,0.6529814
4003.059,-2.132858,70.57578,0.6529814
4003.069,-1.94258,71.01794,0.6539589
4003.079,-1.791478,71.40705,0.6529814
4003.089,-1.673953,71.69004,0.6539589
4003.099,-1.606793,71.88461,0.6539589
4003.109,-1.606793,71.88461,0.6539589
4003.119,-1.573216,72.0261,0.6529814
4003.129,-1.545237,72.06147,0.6510264
4003.139,-1.545237,72.06147,0.6500489
4003.149,-1.483675,71.97303,0.6471163
4003.159,-1.455691,71.91998,0.6451613
4003.169,-1.416516,71.86692,0.6441838
4003.179,-1.377341,71.86692,0.6441838
4003.189,-1.338166,71.86692,0.6441838
4003.199,-1.304588,71.86692,0.6441838
4003.209,-1.304588,71.90229,0.6451613
4003.219,-1.276604,71.95535,0.6451613
4003.229,-1.276604,72.0261,0.6451613
4003.239,-1.276604,72.06147,0.6461388
4003.249,-1.276604,72.06147,0.6451613
4003.259,-1.276604,72.06147,0.6432062
4003.269,-1.248625,72.06147,0.6402737
4003.279,-1.248625,72.00842,0.6363636
4003.289,-1.215047,71.99073,0.6324536
4003.299,-1.187063,71.99073,0.631476
4003.309,-1.147888,71.99073,0.6304985
4003.319,-1.108713,71.99073,0.6304985
4003.329,-1.075136,72.0261,0.6304985
4003.339,-1.047152,72.06147,0.631476
4003.349,-0.98559,72.09684,0.631476
4003.359,-0.9408219,72.13223,0.6324536
4003.369,-0.8960491,72.13223,0.6324536
4003.379,-0.8680696,72.16759,0.631476
4003.389,-0.8009104,72.16759,0.631476
4003.399,-0.7505444,72.16759,0.631476
4003.409,-0.7169624,72.16759,0.6304985
4003.419,-0.688983,72.16759,0.6304985
4003.429,-0.688983,72.18528,0.631476
4003.439,-0.688983,72.18528,0.631476
4003.449,-0.6609987,72.22065,0.6324536
4003.459,-0.6218236,72.25603,0.6324536
4003.469,-0.5602621,72.2914,0.631476
4003.479,-0.5322827,72.2914,0.631476
4003.489,-0.5322827,72.2914,0.631476
4003.499,-0.5322827,72.2914,0.631476
4003.509,-0.5322827,72.23833,0.631476
4003.519,-0.4987054,72.20296,0.6304985
4003.529,-0.4707212,72.14991,0.6304985
4003.539,-0.4707212,72.06147,0.6304985
4003.549,-0.4427417,71.97303,0.629521
4003.559,-0.4427417,71.86692,0.629521
4003.569,-0.4091597,71.77848,0.629521
4003.579,-0.3699846,71.65467,0.629521
4003.589,-0.3699846,71.58392,0.629521
4003.599,-0.2916345,71.24787,0.629521
4003.609,-0.22448,70.20435,0.6285435
4003.619,-0.22448,69.0547,0.6285435
4003.629,-0.263655,68.27647,0.6285435
4003.639,-0.5210871,65.00439,0.627566
4003.649,-0.8288946,61.83843,0.627566
4003.659,-1.2878,57.82351,0.627566
4003.669,-1.892214,53.01266,0.627566
4003.679,-2.658922,47.58278,0.627566
4003.689,-3.134616,44.7175,0.6236559
4003.699,-4.718402,36.0686,0.599218
4003.709,-5.781722,30.56797,0.5777126
4003.719,-6.671553,25.29727,0.5610948
4003.729,-7.477441,20.09731,0.5581623
4003.739,-8.372865,14.84429,0.5610948
4003.749,-9.44738,9.361347,0.5650049
4003.759,-10.68979,3.577727,0.5698925
4003.769,-12.2232,-2.294319,0.5698925
4003.779,-13.84057,-8.148694,0.5698925
4003.789,-15.60344,-13.91463,0.572825
4003.799,-17.27677,-19.3622,0.5796676
4003.809,-18.75982,-24.43834,0.5953079
4003.819,-20.11415,-29.21381,0.6197459
4003.829,-21.18867,-33.74166,0.6451613
4003.839,-22.0841,-38.19876,0.6676442
4003.849,-22.75007,-42.56743,0.6813294
4003.859,-23.24815,-46.82998,0.6871945
4003.869,-23.6343,-50.84491,0.688172
4003.879,-23.98128,-54.47072,0.6891496
4003.889,-24.33945,-57.72512,0.6871945
4003.899,-24.69762,-60.48428,0.686217
4003.909,-25.11736,-62.83664,0.684262
4003.919,-25.60424,-64.74683,0.6823069
4003.929,-26.11352,-66.30328,0.6803519
4003.939,-26.57802,-67.7536,0.6803519
4003.949,-26.95858,-69.20393,0.6803519
4003.959,-27.22721,-70.60119,0.6803519
4003.969,-27.40629,-71.9454,0.6803519
4003.979,-27.51263,-73.09505,0.6793744
4003.989,-27.51263,-74.01476,0.6793744
4003.999,-27.42308,-74.79299,0.6783969
4004.009,-27.25519,-75.50047,0.6783969
4004.019,-27.01455,-76.15488,0.6774194
