time,pos_x,pos_y,pressure
3773.799,0.3743368,-70.42432,0.6285435
3773.809,0.3743368,-70.40663,0.629521
3773.819,0.3463574,-70.40663,0.6304985
3773.829,0.3183731,-70.37126,0.6304985
3773.839,0.2847959,-70.37126,0.6304985
3773.849,0.2568116,-70.37126,0.6304985
3773.859,0.2568116,-70.37126,0.6304985
3773.869,0.2288322,-70.33588,0.6304985
3773.879,0.1952501,-70.3182,0.6304985
3773.889,0.1952501,-70.28282,0.6304985
3773.899,0.1560751,-70.24745,0.631476
3773.909,0.1560751,-70.19439,0.6304985
3773.919,0.1560751,-70.15902,0.6304985
3773.929,0.1560751,-70.15902,0.6304985
3773.939,0.1169048,-70.15902,0.6304985
3773.949,0.07772975,-70.15902,0.6304985
3773.959,0.07772975,-70.15902,0.6304985
3773.969,0.0497455,-70.15902,0.6304985
3773.979,0.01616825,-70.15902,0.6304985
3773.989,0.01616825,-70.15902,0.631476
3773.999,-0.011816,-70.15902,0.631476
3774.009,-0.05099107,-70.15902,0.631476
3774.019,-0.1349342,-70.19439,0.631476
3774.029,-0.3308095,-70.24745,0.631476
3774.039,-0.6386123,-70.3182,0.6304985
3774.049,-1.097522,-70.42432,0.631476
3774.059,-1.685143,-70.53044,0.6324536
3774.069,-2.42947,-70.56582,0.6324536
3774.079,-3.476001,-70.44201,0.6334311
3774.089,-4.740789,-70.03522,0.6344086
3774.099,-6.173473,-69.31005,0.6353861
3774.109,-7.785244,-68.19578,0.6363636
3774.119,-9.497746,-66.6747,0.6363636
3774.129,-11.50686,-64.79989,0.6363636
3774.139,-13.57194,-62.4829,0.6373411
3774.149,-15.77134,-59.68837,0.6373411
3774.159,-17.93155,-56.45166,0.6373411
3774.169,-20.10296,-52.70204,0.6432062
3774.179,-22.11208,-48.49255,0.657869
3774.189,-24.85992,-41.13479,0.6911046
3774.199,-25.61544,-38.42869,0.7008798
3774.209,-27.59657,-29.40837,0.7223852
3774.219,-28.11144,-26.1186,0.7262952
3774.229,-28.72705,-19.32682,0.7321603
3774.239,-28.9565,-12.26974,0.740958
3774.249,-28.76063,-5.248041,0.7507331
3774.259,-27.72529,4.939628,0.7634408
3774.269,-27.20482,8.282449,0.7663734
3774.279,-25.25727,17.92183,0.7663734
3774.289,-23.72385,24.23605,0.7653959
3774.299,-21.99455,30.33803,0.7644184
3774.309,-20.11415,36.21009,0.7634408
3774.319,-18.04348,41.74609,0.7634408
3774.329,-17.04732,44.25763,0.7634408
3774.339,-14.18195,50.53649,0.7653959
3774.349,-12.58138,53.66708,0.7683284
3774.359,-11.16548,56.03712,0.771261
3774.369,-10.48831,57.04528,0.7722385
3774.379,-8.479199,59.43301,0.771261
3774.389,-7.108077,60.72416,0.771261
3774.399,-5.776129,61.8915,0.771261
3774.409,-4.589686,62.95271,0.771261
3774.419,-3.576733,63.94317,0.7722385
3774.429,-2.798834,64.75677,0.7722385
3774.439,-2.272769,65.49963,0.7722385
3774.449,-1.931389,66.15404,0.7761486
3774.459,-1.657164,66.7377,0.7810361
3774.469,-1.377341,67.21526,0.7908114
3774.479,-1.019172,67.63974,0.7986315
3774.489,-0.5602621,68.01116,0.8044966
3774.499,-0.02300682,68.32954,0.8064516
3774.509,0.4750734,68.55946,0.8064516
3774.519,0.8556284,68.71865,0.8054741
3774.529,1.079488,68.75402,0.8035191
3774.539,1.169029,68.78939,0.8025416
3774.549,1.169029,68.78939,0.8025416
3774.559,1.202606,68.78939,0.8025416
3774.569,1.303343,68.86015,0.8044966
3774.579,1.437657,68.98396,0.8044966
3774.589,1.611145,69.14314,0.8054741
3774.599,1.756655,69.30231,0.8064516
3774.609,1.840598,69.37306,0.8064516
3774.619,1.840598,69.40843,0.8064516
3774.629,1.790232,69.37306,0.8064516
3774.639,1.661516,69.28462,0.8064516
3774.649,1.460043,69.16082,0.8064516
3774.659,1.252977,69.03701,0.8064516
3774.669,1.051504,68.94857,0.8064516
3774.679,0.9115921,68.9132,0.8054741
3774.689,0.833242,68.9132,0.8064516
3774.699,0.794067,68.9132,0.8064516
3774.709,0.794067,68.9132,0.8084067
3774.719,0.794067,68.9132,0.8093842
3774.729,0.8220512,68.9132,0.8093842
3774.739,0.8612263,68.9132,0.8084067
3774.749,0.9004014,68.89552,0.8084067
3774.759,0.9339786,68.89552,0.8084067
3774.769,0.9339786,68.86015,0.8074291
3774.779,0.9339786,68.86015,0.8084067
3774.789,0.9339786,68.86015,0.8084067
3774.799,0.9339786,68.86015,0.8084067
3774.809,0.9339786,68.86015,0.8093842
3774.819,0.9339786,68.89552,0.8103617
3774.829,0.9339786,68.89552,0.8103617
3774.839,0.9339786,68.9132,0.8093842
3774.849,0.9339786,68.9132,0.8093842
3774.859,0.9339786,68.9132,0.8093842
3774.869,0.9731537,68.94857,0.8084067
3774.879,1.012329,68.94857,0.8084067
3774.889,1.040313,68.94857,0.8084067
3774.899,1.040313,68.94857,0.8093842
3774.909,1.040313,68.98396,0.8103617
3774.919,1.040313,69.00164,0.8103617
3774.929,1.040313,69.00164,0.8103617
3774.939,1.040313,69.03701,0.8103617
3774.949,1.040313,69.03701,0.8103617
3774.959,1.040313,69.03701,0.8103617
3774.969,1.07389,69.03701,0.8103617
3774.979,1.07389,69.03701,0.8103617
3774.989,1.101874,69.03701,0.8084067
3774.999,1.101874,69.03701,0.8084067
3775.009,1.129854,69.03701,0.8084067
3775.019,1.163431,69.00164,0.8074291
3775.029,1.163431,69.00164,0.8074291
3775.039,1.163431,68.98396,0.8064516
3775.049,1.163431,68.94857,0.8064516
3775.059,1.191415,68.87783,0.8064516
3775.069,1.191415,68.82476,0.8054741
3775.079,1.23059,68.73634,0.8044966
3775.089,1.269765,68.61253,0.8044966
3775.099,1.308941,68.36491,0.8044966
3775.109,1.359306,67.94042,0.8025416
3775.119,1.420868,67.21526,0.8025416
3775.139,1.292152,64.38535,0.801564
3775.149,0.9004014,61.99761,0.801564
3775.159,0.1840593,58.70784,0.8005865
3775.169,-0.7785239,54.40993,0.8005865
3775.179,-1.914596,49.22766,0.801564
3775.189,-3.184987,43.42635,0.797654
3775.199,-4.48895,37.37743,0.7888563
3775.209,-5.776129,31.24007,0.7771261
3775.219,-7.08569,24.90815,0.7644184
3775.229,-8.479199,18.08101,0.7585533
3775.239,-10.0518,10.84706,0.7575758
3775.249,-11.9154,3.170929,0.7565982
3775.259,-13.83497,-4.752804,0.7565982
3775.269,-15.93363,-12.71192,0.7556207
3775.279,-17.94275,-20.60028,0.7575758
3775.289,-19.93507,-28.09953,0.7683284
3775.299,-21.64198,-35.08587,0.7908114
3775.309,-22.93476,-41.34704,0.8191593
3775.319,-23.83018,-47.02453,0.8435972
3775.329,-24.40102,-52.08299,0.8592376
3775.339,-24.78717,-56.71696,0.8651026
3775.349,-25.10616,-60.92645,0.8660802
3775.359,-25.34681,-64.74683,0.8670577
3775.369,-25.5259,-68.12502,0.8670577
3775.379,-25.6658,-71.11411,0.8670577
3775.389,-25.76094,-73.67872,0.8660802
3775.399,-25.79453,-75.76577,0.8641251
3775.409,-25.8225,-77.35759,0.8621701
3775.419,-25.77214,-78.38344,0.8621701
