time,pos_x,pos_y,pressure
3888.899,0.2288322,-70.9903,0.5298142
3888.909,0.2288322,-70.9903,0.5298142
3888.919,0.2288322,-70.9903,0.5298142
3888.929,0.1952501,-70.9903,0.5307918
3888.939,0.1672707,-70.95493,0.5298142
3888.949,0.1672707,-70.91956,0.5298142
3888.959,0.1672707,-70.91956,0.5288367
3888.969,0.1672707,-70.91956,0.5288367
3888.979,0.1672707,-70.90187,0.5278592
3888.989,0.1672707,-70.90187,0.5259042
3888.999,0.1672707,-70.91956,0.5259042
3889.009,0.1392865,-70.97262,0.5249267
3889.019,0.1057092,-70.97262,0.5239491
3889.029,0.1057092,-70.97262,0.5249267
3889.039,0.03855469,-70.97262,0.5249267
3889.049,0.004972627,-70.97262,0.5249267
3889.059,-0.02300682,-70.93725,0.5249267
3889.069,-0.05099107,-70.90187,0.5249267
3889.079,-0.05099107,-70.8665,0.5239491
3889.089,-0.05099107,-70.8665,0.5239491
3889.099,-0.05099107,-70.8665,0.5229716
3889.109,-0.02300682,-70.8665,0.5229716
3889.119,0.004972627,-70.90187,0.5229716
3889.129,0.03855469,-70.95493,0.5229716
3889.139,0.06653413,-70.9903,0.5219941
3889.149,0.1169048,-71.02568,0.5219941
3889.159,0.2288322,-71.02568,0.5200391
3889.169,0.4358984,-70.97262,0.5200391
3889.179,0.743701,-70.88419,0.5210166
3889.189,1.14105,-70.725,0.5259042
3889.199,1.661516,-70.44201,0.5327469
3889.209,2.316297,-69.91141,0.544477
3889.219,3.262091,-69.08012,0.5620723
3889.229,4.442936,-67.80666,0.5816227
3889.239,5.925986,-66.14409,0.6001955
3889.249,7.627298,-64.07472,0.6119257
3889.259,9.457326,-61.51012,0.6177908
3889.269,11.52801,-58.53871,0.6207234
3889.279,13.60987,-55.01902,0.6226784
3889.289,15.82606,-51.00409,0.6236559
3889.299,18.05903,-46.5293,0.6256109
3889.309,20.22484,-41.59465,0.6265885
3889.319,22.18359,-36.43007,0.6265885
3889.329,24.02481,-31.17706,0.6285435
3889.339,25.4575,-26.01248,0.629521
3889.349,26.52081,-20.93633,0.6324536
3889.359,27.19239,-15.93093,0.6383187
3889.369,27.55615,-10.96091,0.6471163
3889.379,27.74643,-5.920142,0.6559139
3889.389,27.74643,-0.8793766,0.6637341
3889.399,27.51138,4.143717,0.6676442
3889.409,27.0133,9.078359,0.6686217
3889.419,26.19622,13.78308,0.6686217
3889.429,25.09933,18.34631,0.6676442
3889.439,23.77857,22.66192,0.6676442
3889.449,22.23396,26.74759,0.6686217
3889.459,20.67255,30.56797,0.6695992
3889.469,19.07198,34.08767,0.6695992
3889.479,17.477,37.58966,0.6705768
3889.489,16.07789,40.95018,0.6715543
3889.499,14.72356,44.4522,0.6705768
3889.509,13.49795,47.91883,0.6715543
3889.519,12.32269,51.3324,0.6715543
3889.529,11.18103,54.62217,0.6695992
3889.539,9.994581,57.50513,0.6764418
3889.549,8.690618,60.01668,0.6901271
3889.559,6.675905,62.89964,0.7194526
3889.569,5.388731,64.45609,0.7341154
3889.579,4.325411,65.74724,0.7419355
3889.589,3.452369,66.82614,0.7438905
3889.599,2.764011,67.72817,0.744868
3889.609,2.237947,68.40028,0.744868
3889.619,1.829407,68.9132,0.7438905
3889.629,1.448852,69.32,0.742913
3889.639,1.051504,69.69142,0.7419355
3889.649,0.5925986,70.00978,0.7419355
3889.659,0.1448843,70.29279,0.7419355
3889.669,-0.2300778,70.52271,0.7458456
3889.679,-0.4987054,70.71727,0.7565982
3889.689,-0.6498079,70.85876,0.7683284
3889.699,-0.688983,70.96488,0.7810361
3889.709,-0.688983,71.05331,0.7859238
3889.719,-0.6498079,71.12406,0.7859238
3889.729,-0.5882463,71.14175,0.7859238
3889.739,-0.5098962,71.19481,0.7859238
3889.749,-0.4203553,71.2125,0.7849463
3889.759,-0.3587938,71.2125,0.7849463
3889.769,-0.2804436,71.2125,0.7839687
3889.779,-0.2132843,71.2125,0.7839687
3889.789,-0.140532,71.2125,0.7839687
3889.799,-0.08456832,71.2125,0.7839687
3889.809,-0.04539325,71.24787,0.7839687
3889.819,-0.011816,71.24787,0.7839687
3889.829,-0.011816,71.24787,0.7849463
3889.849,0.01616825,71.24787,0.7849463
3889.859,0.0497455,71.24787,0.7849463
3889.869,0.07772975,71.24787,0.7839687
3889.879,0.07772975,71.28324,0.7849463
3889.889,0.1392865,71.354,0.7839687
3889.899,0.1784615,71.44242,0.7839687
3889.909,0.2064458,71.54855,0.7839687
3889.919,0.2456208,71.63699,0.7839687
3889.929,0.2456208,71.69004,0.7839687
3889.939,0.2456208,71.74311,0.7839687
3889.949,0.2736003,71.74311,0.7839687
3889.959,0.2456208,71.74311,0.7829912
3889.969,0.2456208,71.74311,0.7829912
3889.979,0.2176366,71.74311,0.7829912
3889.989,0.1840593,71.74311,0.7829912
3889.999,0.1840593,71.74311,0.7839687
3890.009,0.1560751,71.7608,0.7839687
3890.019,0.1169048,71.79617,0.7829912
3890.029,0.1169048,71.83154,0.7829912
3890.039,0.08892057,71.83154,0.7820137
3890.049,0.05534332,71.84922,0.7810361
3890.059,0.02735907,71.84922,0.7781036
3890.069,-0.011816,71.84922,0.773216
3890.079,-0.04539325,71.83154,0.7663734
3890.089,-0.08456832,71.7608,0.7605083
3890.099,-0.140532,71.67236,0.7556207
3890.109,-0.1909027,71.58392,0.7526882
3890.119,-0.22448,71.46011,0.7526882
3890.129,-0.2916345,71.24787,0.7517107
3890.139,-0.3196187,70.87645,0.7517107
3890.149,-0.392371,70.27509,0.7517107
3890.159,-0.4987054,69.37306,0.7507331
3890.169,-0.6721943,67.95811,0.7497556
3890.179,-0.8792605,65.95949,0.7507331
3890.189,-1.047152,63.3772,0.7517107
3890.199,-1.147888,58.49561,0.7517107
3890.209,-1.108713,54.90516,0.7526882
3890.219,-1.047152,52.97729,0.7526882
3890.229,-0.8065081,48.96236,0.7526882
3890.239,-0.4931076,44.77056,0.7526882
3890.249,-0.04539325,40.36652,0.7517107
3890.259,0.57581,35.82098,0.7517107
3890.269,1.767846,28.90539,0.7517107
3890.279,2.741625,24.14761,0.7517107
3890.289,3.250896,21.70681,0.7517107
3890.299,4.68358,13.94226,0.7517107
3890.309,5.500658,8.423943,0.7526882
3890.319,6.20581,2.711076,0.7526882
3890.329,6.910956,-3.107928,0.7546432
3890.339,7.76721,-8.83848,0.7575758
3890.349,8.735391,-14.39217,0.7614858
3890.359,9.815499,-19.68056,0.7693059
3890.369,11.01313,-24.70365,0.7761486
3890.379,12.26674,-29.62061,0.7829912
3890.389,13.53152,-34.44913,0.7859238
3890.399,14.74035,-39.31304,0.7878788
3890.409,15.87642,-44.0885,0.7888563
3890.419,16.96213,-48.66941,0.7878788
3890.429,18.03664,-52.89659,0.7878788
3890.439,19.20069,-56.69927,0.7878788
3890.449,20.41512,-60.05979,0.7878788
3890.459,21.60715,-63.13732,0.7898338
3890.469,22.68167,-65.91416,0.7908114
3890.479,23.53792,-68.49644,0.7908114
3890.489,24.2039,-70.8665,0.7917889
3890.499,24.69078,-72.98892,0.7917889
3890.509,25.02098,-74.79299,0.7927664
3890.519,25.26162,-76.29638,0.7927664
3890.529,25.53585,-77.42834,0.7956989
3890.539,25.94438,-78.1535,0.8005865
