time,pos_x,pos_y,pressure
3930.909,0.9507672,-70.37126,0.4828934
3930.919,0.9507672,-70.3182,0.4828934
3930.929,0.9227878,-70.24745,0.4819159
3930.939,0.9227878,-70.1767,0.4819159
3930.949,0.8836127,-70.10596,0.4819159
3930.959,0.8108604,-70.01752,0.483871
3930.969,0.743701,-69.94678,0.483871
3930.979,0.6653509,-69.85835,0.483871
3930.989,0.5925986,-69.76991,0.4848485
3930.999,0.5366349,-69.69916,0.487781
3931.009,0.5030577,-69.62841,0.4926686
3931.019,0.4750734,-69.55766,0.4995112
3931.029,0.4470892,-69.48692,0.5043988
3931.039,0.4470892,-69.41617,0.5083089
3931.049,0.4470892,-69.36311,0.512219
3931.059,0.4135119,-69.32774,0.516129
3931.069,0.3855325,-69.29236,0.5190616
3931.079,0.3575482,-69.2393,0.5239491
3931.089,0.323971,-69.20393,0.5288367
3931.099,0.2847959,-69.16855,0.5327469
3931.109,0.2456208,-69.11549,0.5366569
3931.119,0.1840593,-69.06243,0.540567
3931.129,0.1057092,-68.99168,0.5434995
3931.139,-0.011816,-68.90324,0.5483871
3931.149,-0.1741093,-68.74406,0.5542522
3931.159,-0.392371,-68.49644,0.5591398
3931.169,-0.6721943,-68.12502,0.5640274
3931.179,-0.9688014,-67.61211,0.5669599
3931.189,-1.304588,-66.90462,0.5689149
3931.199,-1.685143,-65.96722,0.57087
3931.209,-2.082492,-64.83526,0.572825
3931.219,-2.541397,-63.45568,0.5738025
3931.229,-3.067461,-61.82848,0.57478
3931.239,-3.694258,-59.81218,0.57478
3931.249,-4.449775,-57.45981,0.5757576
3931.259,-5.205292,-54.71834,0.5767351
3931.269,-5.960809,-51.49932,0.5757576
3931.279,-6.58761,-47.76738,0.5767351
3931.289,-7.136056,-43.50483,0.5816227
3931.299,-7.555791,-38.67631,0.5923753
3931.309,-7.841208,-33.26411,0.6089932
3931.319,-7.969923,-27.58661,0.629521
3931.329,-7.969923,-21.74993,0.6471163
3931.339,-7.852398,-15.96631,0.6588466
3931.349,-7.662121,-10.37725,0.6656892
3931.359,-7.354318,-4.858928,0.6676442
3931.369,-6.984954,0.6240187,0.6676442
3931.379,-6.531646,6.000842,0.6676442
3931.389,-5.994386,11.39535,0.6637341
3931.399,-5.417956,16.75449,0.657869
3931.409,-4.847123,21.90138,0.6520039
3931.419,-4.343445,26.80065,0.6480938
3931.429,-3.822978,33.32713,0.6461388
3931.439,-3.733433,35.27269,0.6461388
3931.449,-3.705453,38.84544,0.6461388
3931.459,-3.772608,43.49709,0.6461388
3931.469,-3.80619,46.4685,0.6461388
3931.479,-3.643892,49.35147,0.6490713
3931.489,-3.397651,52.28749,0.6529814
3931.499,-3.067461,55.20584,0.6588466
3931.509,-2.698097,57.91193,0.6656892
3931.519,-2.390295,60.51191,0.6705768
3931.529,-2.160842,62.74046,0.6783969
3931.539,-2.032121,64.63296,0.6901271
3931.549,-2.032121,66.13635,0.7047898
3931.559,-2.082492,67.17989,0.718475
3931.569,-2.172033,67.86967,0.7292278
3931.579,-2.250383,68.25878,0.7350929
3931.589,-2.311944,68.48872,0.7399805
3931.599,-2.35112,68.61253,0.742913
3931.609,-2.35112,68.68327,0.744868
3931.619,-2.379099,68.75402,0.7458456
3931.629,-2.379099,68.80708,0.7468231
3931.639,-2.379099,68.86015,0.7458456
3931.649,-2.379099,68.89552,0.7458456
3931.659,-2.35112,68.93089,0.7458456
3931.669,-2.35112,68.96626,0.7468231
3931.679,-2.35112,69.00164,0.7468231
3931.689,-2.35112,69.03701,0.7478006
3931.699,-2.35112,69.09007,0.7478006
3931.709,-2.28396,69.16082,0.7478006
3931.719,-2.183228,69.28462,0.7468231
3931.729,-2.121667,69.35537,0.7458456
3931.739,-1.841844,69.67374,0.744868
3931.749,-1.645968,69.93904,0.7438905
3931.759,-1.466886,70.2574,0.7419355
3931.769,-1.343763,70.52271,0.7399805
3931.779,-1.276604,70.75264,0.7390029
3931.789,-1.276604,70.89413,0.7390029
3931.799,-1.276604,70.96488,0.7390029
3931.809,-1.276604,71.00026,0.7399805
3931.819,-1.276604,71.03563,0.7399805
3931.829,-1.276604,71.03563,0.7399805
3931.839,-1.276604,71.03563,0.7390029
3931.849,-1.248625,71.03563,0.7380254
3931.859,-1.164677,71.03563,0.7360704
3931.869,-1.108713,71.05331,0.7360704
3931.879,-1.069538,71.05331,0.7360704
3931.889,-1.069538,71.05331,0.7360704
3931.899,-1.069538,71.08869,0.7370479
3931.909,-1.069538,71.12406,0.7360704
3931.919,-1.069538,71.12406,0.7360704
3931.929,-1.097522,71.14175,0.7370479
3931.939,-1.125502,71.17712,0.7360704
3931.949,-1.175872,71.17712,0.7360704
3931.959,-1.20945,71.17712,0.7360704
3931.969,-1.248625,71.2125,0.7370479
3931.979,-1.276604,71.23019,0.7370479
3931.989,-1.304588,71.28324,0.7370479
3931.999,-1.304588,71.31861,0.7370479
3932.009,-1.338166,71.354,0.7370479
3932.019,-1.338166,71.37168,0.7370479
3932.029,-1.338166,71.37168,0.7360704
3932.039,-1.304588,71.37168,0.7350929
3932.049,-1.304588,71.354,0.7341154
3932.059,-1.276604,71.28324,0.7302053
3932.069,-1.276604,71.19481,0.7253177
3932.079,-1.248625,71.03563,0.7204301
3932.089,-1.248625,70.6642,0.7155425
3932.099,-1.248625,70.50502,0.714565
3932.109,-1.248625,70.18666,0.714565
3932.119,-1.175872,69.86829,0.714565
3932.129,-1.125502,69.54993,0.714565
3932.139,-1.019172,69.0547,0.7135875
3932.149,-0.9464198,68.61253,0.7135875
3932.159,-0.8904513,68.02885,0.7135875
3932.169,-0.817699,67.07376,0.7126099
3932.179,-0.7617353,65.69418,0.7116324
3932.189,-0.688983,63.73094,0.7106549
3932.199,-0.688983,61.29014,0.7096774
3932.209,-0.688983,58.26567,0.7106549
3932.219,-0.688983,56.56773,0.7096774
3932.229,-0.6274214,50.90792,0.7096774
3932.239,-0.4035667,46.92837,0.7106549
3932.249,0.1280956,42.89575,0.7096774
3932.259,0.8612263,38.8985,0.7086999
3932.269,1.790232,34.75977,0.7077224
3932.279,2.814377,30.40879,0.7057673
3932.289,3.888888,25.72175,0.7047898
3932.299,4.974594,20.68098,0.7047898
3932.309,6.088284,15.42797,0.7047898
3932.319,7.308304,10.15727,0.7047898
3932.329,8.601077,4.868874,0.7077224
3932.339,10.02817,-0.2957009,0.7116324
3932.349,11.51121,-5.40722,0.71652
3932.359,12.99427,-10.58949,0.7214077
3932.369,14.52209,-15.82482,0.7282503
3932.379,16.01634,-21.14858,0.7331378
3932.389,17.39865,-26.43696,0.7390029
3932.399,18.78096,-31.6546,0.7438905
3932.409,20.11851,-36.74844,0.7438905
3932.419,21.42807,-41.61234,0.744868
3932.429,22.80479,-46.05175,0.744868
3932.439,24.1927,-50.13743,0.7438905
3932.449,25.56943,-53.76325,0.7438905
3932.459,26.89018,-57.03533,0.7438905
3932.469,28.02625,-59.97136,0.742913
3932.479,29.01122,-62.62439,0.7438905
3932.489,29.86748,-65.06519,0.744868
3932.499,30.56143,-67.31142,0.7458456
3932.509,31.10987,-69.39848,0.7478006
3932.519,31.52961,-71.14948,0.7487781
3932.529,31.81503,-72.67056,0.7487781
3932.539,31.99412,-73.89096,0.7497556
3932.549,32.11723,-74.89911,0.7497556
3932.559,32.18439,-75.67734,0.7497556
3932.569,32.22357,-76.31406,0.7507331
