time,pos_x,pos_y,pressure
3795.609,0.8220512,-70.60119,0.744868
3795.619,0.7325103,-70.68963,0.7438905
3795.629,0.6541601,-70.76038,0.7438905
3795.639,0.5646144,-70.79575,0.742913
3795.649,0.5142485,-70.79575,0.7419355
3795.659,0.4862642,-70.76038,0.7419355
3795.669,0.4862642,-70.74268,0.7399805
3795.679,0.452687,-70.74268,0.7390029
3795.689,0.452687,-70.74268,0.7390029
3795.699,0.452687,-70.74268,0.7380254
3795.709,0.452687,-70.74268,0.7380254
3795.719,0.452687,-70.74268,0.7370479
3795.729,0.4862642,-70.74268,0.7370479
3795.739,0.4862642,-70.74268,0.7360704
3795.749,0.5142485,-70.74268,0.7370479
3795.759,0.5142485,-70.74268,0.7360704
3795.769,0.5142485,-70.74268,0.7350929
3795.779,0.5142485,-70.74268,0.7350929
3795.789,0.5142485,-70.76038,0.7341154
3795.799,0.5142485,-70.76038,0.7341154
3795.809,0.5142485,-70.76038,0.7341154
3795.819,0.5142485,-70.76038,0.7341154
3795.829,0.4862642,-70.76038,0.7331378
3795.839,0.4470892,-70.76038,0.7341154
3795.849,0.3967233,-70.79575,0.7331378
3795.859,0.3351618,-70.79575,0.7321603
3795.869,0.2568116,-70.83112,0.7321603
3795.879,0.1448843,-70.91956,0.7321603
3795.889,0.01616825,-70.97262,0.7331378
3795.899,-0.1349342,-71.04337,0.7331378
3795.909,-0.3140209,-71.09643,0.7331378
3795.919,-0.5714577,-71.14948,0.7321603
3795.929,-0.9184355,-71.22023,0.7331378
3795.939,-1.36615,-71.34404,0.7331378
3795.949,-1.94258,-71.48553,0.7331378
3795.959,-2.759659,-71.66241,0.7341154
3795.969,-3.940504,-71.8039,0.7341154
3795.979,-5.373188,-71.89233,0.7350929
3795.989,-7.0745,-71.89233,0.7380254
3795.999,-8.848563,-71.76853,0.742913
3796.009,-10.70098,-71.52091,0.7487781
3796.019,-12.58697,-71.07874,0.7575758
3796.029,-14.29948,-70.35357,0.7634408
3796.039,-16.03436,-69.25699,0.7693059
3796.049,-17.68531,-67.73592,0.7722385
3796.059,-19.51534,-65.80804,0.7741935
3796.069,-21.40693,-63.34956,0.7741935
3796.079,-23.24815,-60.3074,0.7722385
3796.089,-25.07818,-56.82308,0.7683284
3796.099,-26.75711,-52.84353,0.7624633
3796.109,-28.50879,-48.47486,0.7556207
3796.119,-30.89846,-41.24091,0.7536657
3796.129,-32.33114,-35.91715,0.7595308
3796.139,-32.95794,-33.15799,0.7663734
3796.149,-34.04924,-27.44512,0.7888563
3796.159,-35.2133,-18.70778,0.831867
3796.169,-35.44275,-15.70101,0.8426197
3796.179,-35.63303,-9.669761,0.85826
3796.189,-35.55468,-3.461657,0.8621701
3796.199,-35.14614,3.153244,0.8631476
3796.209,-33.74144,13.78308,0.8621701
3796.219,-32.12967,21.35308,0.8611926
3796.229,-30.0534,28.94077,0.8602151
3796.239,-27.66373,36.19241,0.8611926
3796.249,-25.14534,42.87806,0.8621701
3796.259,-22.62136,48.92699,0.8621701
3796.269,-20.11415,54.28613,0.8631476
3796.279,-17.65173,59.07927,0.8631476
3796.289,-15.15573,63.32413,0.8631476
3796.299,-12.67651,66.8969,0.8631476
3796.309,-10.2029,69.93904,0.8631476
3796.319,-7.835609,72.34446,0.8621701
3796.329,-5.714568,74.16621,0.8621701
3796.339,-3.934906,75.33355,0.8602151
3796.349,-2.530206,75.97028,0.8572825
3796.359,-1.506062,76.2179,0.8533725
3796.369,-0.7897195,76.23559,0.8475074
3796.379,-0.2804436,76.14715,0.8435972
3796.389,-0.0733775,76.07641,0.8426197
3796.399,0.4135119,75.88184,0.8416422
3796.409,0.5646144,75.8111,0.8416422
3796.419,0.9619628,75.59885,0.8416422
3796.429,1.191415,75.3866,0.8396872
3796.439,1.348116,75.01519,0.8387097
3796.449,1.460043,74.4492,0.8387097
3796.459,1.460043,73.7771,0.8377321
3796.469,1.409677,73.08731,0.8357771
3796.479,1.292152,72.48595,0.8328446
3796.489,1.202606,72.07915,0.829912
3796.499,1.129854,71.79617,0.8260019
3796.509,1.101874,71.6193,0.8260019
3796.519,1.062699,71.51318,0.8269795
3796.529,1.023524,71.44242,0.8308895
3796.539,1.023524,71.37168,0.8347996
3796.549,1.023524,71.33631,0.8387097
3796.559,1.07389,71.26556,0.8406647
3796.569,1.124256,71.2125,0.8426197
3796.579,1.169029,71.17712,0.8445748
3796.589,1.2194,71.17712,0.8455523
3796.599,1.25857,71.17712,0.8475074
3796.609,1.292152,71.17712,0.8484849
3796.619,1.320131,71.17712,0.8504399
3796.629,1.320131,71.17712,0.8523949
3796.639,1.320131,71.2125,0.8533725
3796.649,1.320131,71.2125,0.8533725
3796.659,1.320131,71.2125,0.85435
3796.669,1.320131,71.2125,0.85435
3796.679,1.320131,71.2125,0.85435
3796.689,1.320131,71.2125,0.8553275
3796.699,1.320131,71.2125,0.8553275
3796.709,1.320131,71.23019,0.856305
3796.719,1.392889,71.26556,0.8572825
3796.729,1.392889,71.26556,0.8572825
3796.739,1.420868,71.26556,0.8572825
3796.749,1.420868,71.26556,0.8572825
3796.759,1.420868,71.26556,0.8572825
3796.769,1.420868,71.30093,0.8572825
3796.779,1.420868,71.30093,0.85826
3796.789,1.420868,71.33631,0.8592376
3796.799,1.392889,71.37168,0.8602151
3796.809,1.392889,71.40705,0.8602151
3796.819,1.392889,71.44242,0.8602151
3796.829,1.420868,71.53086,0.8602151
3796.839,1.448852,71.58392,0.8602151
3796.849,1.448852,71.70773,0.8602151
3796.859,1.448852,71.81385,0.8602151
3796.869,1.448852,71.91998,0.8602151
3796.879,1.448852,72.0261,0.8602151
3796.889,1.448852,72.13223,0.8611926
3796.899,1.48243,72.22065,0.8611926
3796.909,1.48243,72.2914,0.8611926
3796.919,1.510409,72.32677,0.8611926
3796.929,1.510409,72.36214,0.8611926
3796.939,1.510409,72.39753,0.8611926
3796.949,1.510409,72.39753,0.8611926
3796.959,1.510409,72.39753,0.8602151
3796.969,1.510409,72.39753,0.8602151
3796.979,1.538393,72.09684,0.8592376
3796.989,1.616743,71.46011,0.8572825
3796.999,1.667109,70.36353,0.856305
3797.009,1.751057,68.66558,0.8553275
3797.019,1.857392,66.22479,0.8553275
3797.029,1.969319,63.2357,0.8553275
3797.039,2.153999,59.4507,0.85435
3797.049,2.405838,55.20584,0.8494624
3797.059,2.825568,50.51881,0.8445748
3797.069,3.480353,45.51341,0.8387097
3797.079,4.414952,40.27808,0.8367546
3797.089,5.579009,34.81282,0.8367546
3797.099,7.000502,28.90539,0.8387097
3797.109,8.505938,22.52042,0.8406647
3797.119,10.04495,15.83477,0.8445748
3797.129,11.51121,8.777685,0.8465298
3797.139,12.77041,1.313805,0.8475074
3797.149,13.8897,-6.309255,0.8475074
3797.159,14.87466,-14.00307,0.8475074
3797.169,15.91559,-21.29007,0.8465298
3797.179,17.09085,-27.97573,0.8504399
3797.189,18.4172,-33.97159,0.85826
3797.199,19.77712,-39.45454,0.8709677
3797.209,21.0587,-44.54836,0.884653
3797.219,22.19478,-49.32383,0.8924731
3797.229,23.03984,-53.78094,0.8963832
3797.239,23.64985,-58.00811,0.8973607
3797.249,24.07517,-61.88154,0.8973607
3797.259,24.45573,-65.33049,0.8973607
3797.269,24.85308,-68.23115,0.8983382
3797.279,25.36795,-70.54813,0.8983382
3797.289,25.92759,-72.38757,0.8983382
3797.299,26.44246,-73.82021,0.8983382
3797.309,26.87899,-75.00523,0.8983382
3797.319,27.22037,-76.01339,0.8973607
3797.329,27.46661,-76.93311,0.8973607
