time,pos_x,pos_y,pressure
30787.2,-0.6609987,-69.99984,0.5024438
30787.21,-0.6218236,-69.99984,0.5024438
30787.22,-0.6218236,-69.96447,0.5024438
30787.23,-0.5882463,-69.96447,0.5024438
30787.24,-0.5602621,-69.96447,0.5034213
30787.25,-0.5210871,-69.92909,0.5024438
30787.26,-0.4819168,-69.89371,0.5034213
30787.27,-0.4483347,-69.89371,0.5024438
30787.28,-0.4203553,-69.87603,0.5024438
30787.29,-0.4203553,-69.87603,0.5024438
30787.3,-0.4203553,-69.87603,0.5014663
30787.31,-0.4203553,-69.87603,0.5014663
30787.32,-0.4203553,-69.87603,0.5024438
30787.33,-0.4203553,-69.87603,0.5024438
30787.34,-0.4203553,-69.84066,0.5034213
30787.35,-0.4595304,-69.84066,0.5024438
30787.36,-0.4931076,-69.80528,0.5043988
30787.37,-0.5322827,-69.80528,0.5043988
30787.38,-0.5714577,-69.80528,0.5034213
30787.39,-0.5994372,-69.80528,0.5034213
30787.4,-0.6609987,-69.80528,0.5024438
30787.41,-0.688983,-69.80528,0.5024438
30787.42,-0.7393488,-69.80528,0.5024438
30787.43,-0.7785239,-69.84066,0.5024438
30787.44,-0.8065081,-69.84066,0.5024438
30787.45,-0.8512762,-69.84066,0.5034213
30787.46,-0.9184355,-69.84066,0.5034213
30787.47,-0.9688014,-69.80528,0.5034213
30787.48,-1.136697,-69.69916,0.5043988
30787.49,-1.298991,-69.53998,0.5043988
30787.5,-1.494866,-69.31005,0.5024438
30787.51,-1.606793,-69.16855,0.5024438
30787.52,-1.881019,-68.81481,0.5014663
30787.53,-2.211208,-68.40801,0.5014663
30787.54,-2.82122,-67.57673,0.5034213
30787.55,-3.34728,-66.81619,0.5034213
30787.56,-4.063622,-65.84341,0.5024438
30787.57,-4.897489,-64.69376,0.5024438
30787.58,-5.776129,-63.34956,0.5014663
30787.59,-6.626785,-61.81079,0.5014663
30787.6,-7.415879,-59.93599,0.5014663
30787.61,-8.283324,-57.83124,0.5014663
30787.62,-9.139578,-55.47888,0.5024438
30787.63,-9.951058,-52.82584,0.5034213
30787.64,-10.65061,-49.99593,0.5063539
30787.65,-11.2886,-46.86535,0.5073314
30787.66,-11.99375,-43.50483,0.5083089
30787.67,-12.76046,-40.00283,0.5092864
30787.68,-13.51598,-36.21783,0.5083089
30787.69,-14.17076,-32.36208,0.5102639
30787.7,-14.64086,-28.22334,0.5131965
30787.71,-14.93747,-23.97848,0.518084
30787.72,-15.10536,-19.55676,0.5239491
30787.73,-15.15573,-15.01121,0.5278592
30787.74,-15.07738,-10.37725,0.5298142
30787.75,-14.87591,-5.672524,0.5317693
30787.76,-14.52893,-0.8970617,0.5327469
30787.77,-13.93011,3.931469,0.5356794
30787.78,-13.53277,6.389954,0.5356794
30787.79,-12.04412,13.81845,0.5395895
30787.8,-10.91924,18.71774,0.542522
30787.81,-9.721605,23.45783,0.5464321
30787.82,-8.501586,28.03874,0.5503421
30787.83,-7.264777,32.47816,0.5513197
30787.84,-5.983195,36.77607,0.5532747
30787.85,-4.679227,40.84406,0.5532747
30787.86,-3.386455,44.68212,0.5522972
30787.87,-2.200017,48.18413,0.5532747
30787.88,-1.159084,51.38547,0.5532747
30787.89,-0.1517276,54.3215,0.5532747
30787.9,0.7325103,56.93916,0.5532747
30787.91,1.48243,59.27383,0.5532747
30787.92,2.086844,61.39626,0.5542522
30787.93,2.596115,63.27107,0.5542522
30787.94,3.083005,65.07514,0.5542522
30787.95,3.547508,66.66696,0.5542522
30787.96,4.034397,68.13497,0.5542522
30787.97,4.454127,69.46149,0.5562072
30787.98,4.801105,70.61115,0.5591398
30787.99,5.041753,71.58392,0.5640274
30788,5.170469,72.32677,0.5679374
30788.01,5.209644,72.87507,0.5698925
30788.02,5.209644,73.28186,0.5698925
30788.03,5.131294,73.61792,0.57087
30788.04,5.013769,73.88322,0.5718475
30788.05,4.862667,74.06009,0.5738025
30788.06,4.705966,74.16621,0.5757576
30788.07,4.526879,74.20158,0.5757576
30788.08,4.303025,74.20158,0.5757576
30788.09,4.034397,74.07777,0.5767351
30788.1,3.726594,73.91859,0.5757576
30788.11,3.368421,73.6356,0.5757576
30788.12,2.993464,73.28186,0.5757576
30788.13,2.612904,72.85738,0.5757576
30788.14,2.204369,72.39753,0.5757576
30788.15,1.767846,71.91998,0.5767351
30788.16,1.303343,71.37168,0.5767351
30788.17,0.8220512,70.80569,0.5767351
30788.18,0.323971,70.2574,0.5777126
30788.19,-0.1629184,69.83292,0.5777126
30788.2,-0.5882463,69.47917,0.5777126
30788.21,-0.9576106,69.23156,0.5786901
30788.22,-1.215047,69.03701,0.5786901
30788.23,-1.388536,68.9132,0.5796676
30788.24,-1.483675,68.84246,0.5786901
30788.25,-1.517252,68.82476,0.5786901
30788.26,-1.545237,68.82476,0.5777126
30788.27,-1.545237,68.82476,0.5777126
30788.28,-1.545237,68.82476,0.5777126
30788.29,-1.545237,68.82476,0.5777126
30788.3,-1.545237,68.86015,0.5786901
30788.31,-1.506062,68.93089,0.5777126
30788.32,-1.478077,69.01933,0.5777126
30788.33,-1.4445,69.0547,0.5786901
30788.34,-1.416516,69.12545,0.5786901
30788.35,-1.388536,69.19619,0.5806451
30788.36,-1.354954,69.24925,0.5806451
30788.37,-1.326975,69.28462,0.5816227
30788.38,-1.326975,69.32,0.5806451
30788.39,-1.298991,69.35537,0.5806451
30788.4,-1.298991,69.39075,0.5806451
30788.41,-1.265413,69.40843,0.5806451
30788.42,-1.265413,69.46149,0.5796676
30788.43,-1.226238,69.46149,0.5806451
30788.44,-1.198254,69.47917,0.5806451
30788.45,-1.159084,69.53224,0.5806451
30788.46,-1.119909,69.53224,0.5806451
30788.47,-1.086327,69.54993,0.5806451
30788.48,-1.019172,69.54993,0.5796676
30788.49,-0.979997,69.5853,0.5796676
30788.5,-0.9408219,69.5853,0.5786901
30788.51,-0.9072447,69.5853,0.5786901
30788.52,-0.8680696,69.5853,0.5786901
30788.53,-0.8400854,69.5853,0.5806451
30788.54,-0.8009104,69.62067,0.5796676
30788.55,-0.7617353,69.62067,0.5806451
30788.56,-0.7113694,69.62067,0.5806451
30788.57,-0.6721943,69.63837,0.5806451
30788.58,-0.6218236,69.63837,0.5816227
30788.59,-0.5882463,69.67374,0.5806451
30788.6,-0.5490713,69.70911,0.5806451
30788.61,-0.5210871,69.70911,0.5816227
30788.62,-0.4819168,69.70911,0.5806451
30788.63,-0.4819168,69.70911,0.5806451
30788.64,-0.4483347,69.70911,0.5806451
30788.65,-0.4483347,69.70911,0.5806451
30788.66,-0.4483347,69.70911,0.5806451
30788.67,-0.4483347,69.70911,0.5806451
30788.68,-0.4931076,69.70911,0.5806451
30788.69,-0.4595304,69.67374,0.5806451
30788.7,-0.4595304,69.67374,0.5816227
30788.71,-0.4595304,69.67374,0.5816227
30788.72,-0.4595304,69.67374,0.5826002
30788.73,-0.4931076,69.67374,0.5826002
30788.74,-0.4931076,69.67374,0.5816227
30788.75,-0.4931076,69.67374,0.5826002
30788.76,-0.4931076,69.67374,0.5835777
30788.77,-0.4931076,69.67374,0.5826002
30788.78,-0.5322827,69.67374,0.5826002
30788.79,-0.5322827,69.67374,0.5826002
30788.8,-0.5994372,69.70911,0.5826002
30788.81,-0.6274214,69.70911,0.5826002
30788.82,-0.6274214,69.70911,0.5835777
30788.83,-0.6777873,69.70911,0.5835777
30788.84,-0.6777873,69.70911,0.5835777
30788.85,-0.7113694,69.70911,0.5826002
30788.86,-0.7393488,69.70911,0.5826002
30788.87,-0.7393488,69.70911,0.5826002
30788.88,-0.7785239,69.63837,0.5826002
30788.89,-0.8065081,69.56761,0.5816227
30788.9,-0.8680696,69.46149,0.5816227
30788.91,-0.9576106,69.28462,0.5816227
30788.92,-1.075136,68.98396,0.5816227
30788.93,-1.265413,68.54177,0.5806451
30788.94,-1.517252,67.88735,0.5816227
30788.95,-1.836246,66.98532,0.5806451
30788.96,-2.222404,65.78262,0.5816227
30788.97,-2.658922,64.26154,0.5816227
30788.98,-3.224162,62.51053,0.5806451
30788.99,-3.912519,60.5296,0.5806451
30789,-4.701614,58.17724,0.5806451
30789.01,-5.507502,55.54189,0.5806451
30789.02,-6.240632,52.51743,0.5806451
30789.03,-6.889815,49.17461,0.5806451
30789.04,-7.477441,45.69028,0.5806451
30789.05,-8.053871,41.92296,0.5816227
30789.06,-8.64709,38.01416,0.5806451
30789.07,-9.234716,33.80468,0.5816227
30789.08,-9.794358,29.36526,0.5816227
30789.09,-10.27005,24.66054,0.5816227
30789.1,-10.68979,19.65514,0.5806451
30789.11,-11.08713,14.38444,0.5806451
30789.12,-11.45649,8.972235,0.5786901
30789.13,-11.79228,3.400862,0.5777126
30789.14,-12.0833,-2.117455,0.5777126
30789.15,-12.26238,-7.494278,0.5786901
30789.16,-12.31275,-12.8711,0.5786901
30789.17,-12.2288,-18.12411,0.5786901
30789.18,-12.04412,-23.18257,0.5777126
30789.19,-11.59641,-30.50495,0.5786901
30789.2,-11.20466,-35.20967,0.5786901
30789.21,-10.98639,-37.49129,0.5786901
30789.22,-10.43795,-41.94839,0.5786901
30789.23,-9.704817,-46.15788,0.5777126
30789.24,-8.848563,-50.03131,0.5767351
30789.25,-7.415879,-55.07208,0.5777126
30789.26,-6.369348,-57.86661,0.5767351
30789.27,-5.781722,-59.08701,0.5777126
30789.28,-3.873344,-62.21759,0.5777126
30789.29,-3.196177,-63.04888,0.5767351
30789.3,-1.058347,-65.31281,0.5757576
30789.31,0.4358984,-66.58627,0.5738025
30789.32,1.241781,-67.15224,0.5738025
30789.33,2.954288,-68.19578,0.5738025
30789.34,4.705966,-69.06243,0.572825
30789.35,7.537757,-70.10596,0.572825
30789.36,9.412553,-70.68963,0.5738025
30789.37,11.33773,-71.20255,0.5738025
30789.38,12.25554,-71.45016,0.57478
30789.39,15.14329,-72.17532,0.57478
30789.4,16.97332,-72.67056,0.5757576
30789.41,18.79216,-73.25423,0.5767351
30789.42,20.42632,-73.78484,0.5777126
30789.43,21.80863,-74.35082,0.5786901
30789.44,22.98388,-74.88142,0.5796676
30789.45,23.94646,-75.35897,0.5796676
30789.46,24.8307,-75.78345,0.5796676
30789.47,25.5974,-76.11951,0.5786901
30789.48,26.20741,-76.4025,0.5796676
30789.49,26.63274,-76.68549,0.5806451
