time,pos_x,pos_y,pressure
5681.12,-0.1517276,-70.07059,0.5395895
5681.13,-0.1517276,-70.07059,0.540567
5681.14,-0.1517276,-70.07059,0.540567
5681.15,-0.1517276,-70.07059,0.540567
5681.16,-0.1517276,-70.07059,0.5415445
5681.18,-0.1517276,-70.07059,0.542522
5681.19,-0.1517276,-70.07059,0.5434995
5681.2,-0.1517276,-70.07059,0.544477
5681.21,-0.1517276,-70.07059,0.5454546
5681.22,-0.1517276,-70.07059,0.5474096
5681.23,-0.1517276,-70.07059,0.5483871
5681.24,-0.1517276,-70.07059,0.5483871
5681.25,-0.1517276,-70.07059,0.5493646
5681.26,-0.1517276,-70.07059,0.5503421
5681.27,-0.1517276,-70.07059,0.5513197
5681.28,-0.1517276,-70.07059,0.5522972
5681.29,-0.1517276,-70.07059,0.5532747
5681.3,-0.1517276,-70.07059,0.5542522
5681.31,-0.1517276,-70.07059,0.5552297
5681.32,-0.1517276,-70.07059,0.5552297
5681.33,-0.1517276,-70.07059,0.5542522
5681.34,-0.1517276,-70.07059,0.5552297
5681.35,-0.1517276,-70.03522,0.5552297
5681.36,-0.1517276,-69.99984,0.5542522
5681.37,-0.1517276,-69.91141,0.5552297
5681.38,-0.1909027,-69.73454,0.5552297
5681.39,-0.2692528,-69.43385,0.5542522
5681.4,-0.3308095,-69.04475,0.5552297
5681.41,-0.4203553,-68.51413,0.5552297
5681.42,-0.4819168,-67.80666,0.5542522
5681.43,-0.5322827,-66.86925,0.5552297
5681.44,-0.6218236,-65.73729,0.5552297
5681.45,-0.7001737,-64.3754,0.5542522
5681.46,-0.8009104,-62.85432,0.5542522
5681.47,-0.8400854,-61.12101,0.5542522
5681.48,-0.8400854,-59.14007,0.5532747
5681.49,-0.8400854,-56.96458,0.5542522
5681.5,-0.8009104,-54.48841,0.5542522
5681.51,-0.8009104,-51.67619,0.5542522
5681.52,-0.9408219,-48.40411,0.5542522
5681.53,-1.175872,-44.58374,0.5552297
5681.54,-1.466886,-40.30351,0.5552297
5681.55,-1.774689,-35.5811,0.5552297
5681.56,-2.071296,-30.50495,0.5552297
5681.57,-2.339924,-25.11044,0.5542522
5681.58,-2.597361,-19.48601,0.5542522
5681.59,-2.8492,-13.52552,0.5513197
5681.6,-3.039477,-7.441223,0.5474096
5681.61,-3.134616,-1.33923,0.544477
5681.62,-3.134616,4.692009,0.540567
5681.63,-3.045075,10.58175,0.5366569
5681.64,-2.888375,16.27694,0.5337244
5681.65,-2.580572,24.1653,0.5288367
5681.66,-2.468645,26.57073,0.5268817
5681.67,-2.183228,33.15026,0.5259042
5681.68,-2.093683,35.20193,0.5259042
5681.69,-1.964967,39.19918,0.5229716
5681.7,-1.825055,43.07261,0.5200391
5681.71,-1.556427,48.52019,0.516129
5681.72,-1.455691,50.14738,0.514174
5681.73,-1.254223,54.37455,0.512219
5681.74,-1.254223,55.55957,0.5131965
5681.75,-1.298991,58.58403,0.512219
5681.76,-1.36615,60.15817,0.5131965
5681.77,-1.394129,60.84797,0.514174
5681.78,-1.427711,62.03299,0.514174
5681.79,-1.394129,63.00577,0.514174
5681.8,-1.2878,64.04929,0.5131965
5681.81,-1.237429,64.27923,0.5131965
5681.82,-1.097522,64.5799,0.5131965
5681.83,-0.9688014,64.77447,0.5102639
5681.84,-0.817699,64.89826,0.5073314
5681.85,-0.6721943,65.02207,0.5043988
5681.86,-0.5098962,65.16358,0.5004888
5681.87,-0.3811802,65.34045,0.4965787
5681.88,-0.263655,65.57038,0.4965787
5681.89,-0.1349342,65.94179,0.4975562
5681.9,-0.1013569,66.0833,0.4975562
5681.91,-0.05099107,66.59621,0.4975562
5681.92,-0.011816,66.79077,0.4975562
5681.93,0.0497455,67.37444,0.4975562
5681.94,0.07772975,67.76354,0.4975562
5681.95,0.1448843,67.95811,0.4975562
5681.96,0.2568116,68.48872,0.4975562
5681.97,0.3351618,68.82476,0.4965787
5681.98,0.3967233,69.14314,0.4985337
5681.99,0.4470892,69.42612,0.4985337
5682,0.4750734,69.72679,0.4975562
5682.01,0.4750734,70.02748,0.4985337
5682.02,0.5030577,70.31047,0.4995112
5682.03,0.5030577,70.52271,0.5004888
5682.04,0.5030577,70.64651,0.5024438
5682.05,0.5030577,70.71727,0.5034213
5682.06,0.5030577,70.71727,0.5014663
5682.07,0.5030577,70.71727,0.5014663
5682.08,0.5030577,70.71727,0.5014663
5682.09,0.5030577,70.71727,0.5004888
5682.1,0.5030577,70.71727,0.5014663
5682.11,0.5030577,70.71727,0.5024438
5682.12,0.5030577,70.71727,0.5024438
5682.13,0.5030577,70.6819,0.5043988
5682.14,0.5030577,70.64651,0.5053763
5682.15,0.5030577,70.64651,0.5053763
5682.16,0.5030577,70.61115,0.5063539
5682.17,0.5030577,70.61115,0.5063539
5682.18,0.5030577,70.57578,0.5063539
5682.19,0.5030577,70.57578,0.5073314
5682.2,0.5030577,70.57578,0.5083089
5682.21,0.5030577,70.57578,0.5073314
5682.22,0.5030577,70.57578,0.5073314
5682.23,0.5030577,70.57578,0.5083089
5682.24,0.5030577,70.57578,0.5073314
5682.25,0.5030577,70.57578,0.5092864
5682.26,0.5030577,70.55809,0.5102639
5682.27,0.4750734,70.55809,0.5102639
5682.28,0.4750734,70.52271,0.5112414
5682.29,0.4750734,70.48734,0.512219
5682.3,0.4470892,70.48734,0.5131965
5682.31,0.4470892,70.46965,0.5131965
5682.32,0.4470892,70.46965,0.514174
5682.33,0.4470892,70.46965,0.5131965
5682.34,0.4470892,70.46965,0.5131965
5682.35,0.4470892,70.46965,0.514174
5682.36,0.4135119,70.43428,0.514174
5682.37,0.4135119,70.43428,0.514174
5682.38,0.4135119,70.3989,0.514174
5682.39,0.4135119,70.36353,0.5131965
5682.4,0.3855325,70.36353,0.514174
5682.41,0.3855325,70.34584,0.5151515
5682.42,0.3575482,70.34584,0.5151515
5682.43,0.323971,70.31047,0.5171065
5682.44,0.2568116,70.31047,0.518084
5682.45,0.2568116,70.27509,0.5190616
5682.46,0.1840593,70.2574,0.5190616
5682.47,0.1560751,70.20435,0.5190616
5682.48,0.1280956,70.04517,0.5190616
5682.49,0.07772975,69.95673,0.5190616
5682.5,-0.011816,69.47917,0.5190616
5682.51,-0.1013569,69.00164,0.518084
5682.52,-0.22448,68.31184,0.518084
5682.53,-0.4203553,67.25063,0.518084
5682.54,-0.728158,65.69418,0.5171065
5682.55,-1.198254,63.48332,0.5171065
5682.56,-1.86423,60.54728,0.518084
5682.57,-2.731675,56.88609,0.5171065
5682.58,-3.951695,52.35825,0.5171065
5682.59,-5.356394,46.92837,0.5190616
5682.6,-6.968165,40.66719,0.5200391
5682.61,-7.813223,37.28899,0.5210166
5682.62,-10.25326,26.1993,0.5219941
5682.63,-11.10952,22.29049,0.5210166
5682.64,-12.72688,14.31369,0.5239491
5682.65,-14.92628,2.215839,0.5288367
5682.66,-16.2918,-5.442591,0.5337244
5682.67,-16.95778,-9.209908,0.5356794
5682.68,-18.9501,-19.99892,0.5415445
5682.69,-20.33242,-26.9322,0.544477
5682.7,-21.614,-33.67091,0.5464321
5682.71,-22.83961,-40.23276,0.5483871
5682.72,-23.91413,-46.49393,0.5483871
5682.73,-24.86552,-52.40136,0.5483871
5682.74,-25.81131,-57.76049,0.5503421
5682.75,-26.75711,-62.55365,0.5503421
5682.76,-27.66373,-66.6747,0.5513197
5682.77,-28.49759,-70.0529,0.5522972
5682.78,-29.29789,-72.8828,0.5542522
5682.79,-30.00303,-75.12904,0.5542522
5682.8,-30.29964,-76.03107,0.5552297
5682.81,-30.96561,-78.08276,0.5552297
